 #
 # Subroutine ELSEPA. Elastic scattering of electrons and positrons
 #                    by neutral atoms and positive ions
 #
 # Projectile: electron
 # Kinetic energy = 9.00000E+01 eV = 3.30744E+00 a.u.
 #
 #  ***  WARNING: Energy is too low.
 #                The reliability of the results is questionable.
 #
 # Element: Hg,  Z =  80,  atomic weight = 2.00590E+02 g/mol
 #
 # Nuclear model: Fermi distribution
 #                Average radius = 6.26355E-13 cm
 #                Skin thickness = 5.46000E-14 cm
 #
 # Number of electrons = 80
 #
 # Electron density: Read from file z_080.den   
 #                   Number of data points =  763
 #                   Volume integral = 8.00000E+01
 #
 # Riley-Truhlar exchange potential
 #
 # Total elastic cross section = 9.39628E-16 cm**2 = 3.35547E+01 a0**2
 # 1st transport cross section = 2.56486E-16 cm**2 = 9.15930E+00 a0**2
 # 2nd transport cross section = 4.20127E-16 cm**2 = 1.50030E+01 a0**2
 #
 #
 # Differential cross section:                       MU=(1-COS(THETA))/2
 #
 #  THETA        MU          DCS          DCS        Sherman      error
 #  (deg)                 (cm**2/sr)   (a0**2/sr)    function
 #----------------------------------------------------------------------
  0.000E+00  0.00000E+00  1.63466E-15  5.83749E+01  0.00000E+00  1.0E-07
  1.000E-04  7.61557E-13  1.63466E-15  5.83749E+01  2.24183E-08  1.0E-07
  1.250E-04  1.18994E-12  1.63466E-15  5.83749E+01  2.80229E-08  1.0E-07
  1.500E-04  1.71346E-12  1.63466E-15  5.83749E+01  3.36274E-08  1.0E-07
  1.750E-04  2.33225E-12  1.63466E-15  5.83749E+01  3.92320E-08  1.0E-07
  2.000E-04  3.04617E-12  1.63466E-15  5.83749E+01  4.48366E-08  1.0E-07
  2.250E-04  3.85530E-12  1.63466E-15  5.83749E+01  5.04411E-08  1.0E-07
  2.500E-04  4.75964E-12  1.63466E-15  5.83749E+01  5.60457E-08  1.0E-07
  2.750E-04  5.75917E-12  1.63466E-15  5.83749E+01  6.16503E-08  1.0E-07
  3.000E-04  6.85391E-12  1.63466E-15  5.83749E+01  6.72548E-08  1.0E-07
  3.250E-04  8.04379E-12  1.63466E-15  5.83749E+01  7.28594E-08  1.0E-07
  3.500E-04  9.32893E-12  1.63466E-15  5.83749E+01  7.84640E-08  1.0E-07
  3.750E-04  1.07092E-11  1.63466E-15  5.83749E+01  8.40686E-08  1.0E-07
  4.000E-04  1.21847E-11  1.63466E-15  5.83749E+01  8.96731E-08  1.0E-07
  4.250E-04  1.37554E-11  1.63466E-15  5.83749E+01  9.52777E-08  1.0E-07
  4.500E-04  1.54213E-11  1.63466E-15  5.83749E+01  1.00882E-07  1.0E-07
  4.750E-04  1.71823E-11  1.63466E-15  5.83749E+01  1.06487E-07  1.0E-07
  5.000E-04  1.90386E-11  1.63466E-15  5.83749E+01  1.12091E-07  1.0E-07
  5.250E-04  2.09900E-11  1.63466E-15  5.83749E+01  1.17696E-07  1.0E-07
  5.500E-04  2.30367E-11  1.63466E-15  5.83749E+01  1.23301E-07  1.0E-07
  5.750E-04  2.51785E-11  1.63466E-15  5.83749E+01  1.28905E-07  1.0E-07
  6.000E-04  2.74156E-11  1.63466E-15  5.83749E+01  1.34510E-07  1.0E-07
  6.250E-04  2.97478E-11  1.63466E-15  5.83749E+01  1.40114E-07  1.0E-07
  6.500E-04  3.21752E-11  1.63466E-15  5.83749E+01  1.45719E-07  1.0E-07
  6.750E-04  3.46979E-11  1.63466E-15  5.83749E+01  1.51323E-07  1.0E-07
  7.000E-04  3.73157E-11  1.63466E-15  5.83749E+01  1.56928E-07  1.0E-07
  7.250E-04  4.00286E-11  1.63466E-15  5.83749E+01  1.62533E-07  1.0E-07
  7.500E-04  4.28368E-11  1.63466E-15  5.83749E+01  1.68137E-07  1.0E-07
  7.750E-04  4.57402E-11  1.63466E-15  5.83749E+01  1.73742E-07  1.0E-07
  8.000E-04  4.87388E-11  1.63466E-15  5.83749E+01  1.79346E-07  1.0E-07
  8.250E-04  5.18325E-11  1.63466E-15  5.83749E+01  1.84951E-07  1.0E-07
  8.500E-04  5.50215E-11  1.63466E-15  5.83749E+01  1.90555E-07  1.0E-07
  8.750E-04  5.83057E-11  1.63466E-15  5.83749E+01  1.96160E-07  1.0E-07
  9.000E-04  6.16850E-11  1.63466E-15  5.83749E+01  2.01765E-07  1.0E-07
  9.250E-04  6.51595E-11  1.63466E-15  5.83749E+01  2.07369E-07  1.0E-07
  9.500E-04  6.87293E-11  1.63466E-15  5.83749E+01  2.12974E-07  1.0E-07
  9.750E-04  7.23943E-11  1.63466E-15  5.83749E+01  2.18578E-07  1.0E-07
  1.000E-03  7.61544E-11  1.63466E-15  5.83749E+01  2.24183E-07  1.0E-07
  1.250E-03  1.18991E-10  1.63466E-15  5.83749E+01  2.80229E-07  1.0E-07
  1.500E-03  1.71347E-10  1.63466E-15  5.83749E+01  3.36274E-07  1.0E-07
  1.750E-03  2.33223E-10  1.63466E-15  5.83749E+01  3.92320E-07  1.0E-07
  2.000E-03  3.04617E-10  1.63466E-15  5.83749E+01  4.48366E-07  1.0E-07
  2.250E-03  3.85531E-10  1.63466E-15  5.83749E+01  5.04411E-07  1.0E-07
  2.500E-03  4.75965E-10  1.63466E-15  5.83749E+01  5.60457E-07  1.0E-07
  2.750E-03  5.75917E-10  1.63466E-15  5.83749E+01  6.16503E-07  1.0E-07
  3.000E-03  6.85389E-10  1.63466E-15  5.83749E+01  6.72549E-07  1.0E-07
  3.250E-03  8.04380E-10  1.63466E-15  5.83749E+01  7.28594E-07  1.0E-07
  3.500E-03  9.32891E-10  1.63466E-15  5.83749E+01  7.84640E-07  1.0E-07
  3.750E-03  1.07092E-09  1.63466E-15  5.83749E+01  8.40686E-07  1.0E-07
  4.000E-03  1.21847E-09  1.63466E-15  5.83749E+01  8.96731E-07  1.0E-07
  4.250E-03  1.37554E-09  1.63466E-15  5.83749E+01  9.52777E-07  1.0E-07
  4.500E-03  1.54213E-09  1.63466E-15  5.83749E+01  1.00882E-06  1.0E-07
  4.750E-03  1.71823E-09  1.63466E-15  5.83749E+01  1.06487E-06  1.0E-07
  5.000E-03  1.90386E-09  1.63466E-15  5.83749E+01  1.12091E-06  1.0E-07
  5.250E-03  2.09900E-09  1.63466E-15  5.83749E+01  1.17696E-06  1.0E-07
  5.500E-03  2.30367E-09  1.63466E-15  5.83749E+01  1.23301E-06  1.0E-07
  5.750E-03  2.51785E-09  1.63466E-15  5.83749E+01  1.28905E-06  1.0E-07
  6.000E-03  2.74156E-09  1.63466E-15  5.83749E+01  1.34510E-06  1.0E-07
  6.250E-03  2.97478E-09  1.63466E-15  5.83749E+01  1.40114E-06  1.0E-07
  6.500E-03  3.21752E-09  1.63466E-15  5.83749E+01  1.45719E-06  1.0E-07
  6.750E-03  3.46978E-09  1.63466E-15  5.83749E+01  1.51323E-06  1.0E-07
  7.000E-03  3.73156E-09  1.63466E-15  5.83749E+01  1.56928E-06  1.0E-07
  7.250E-03  4.00286E-09  1.63466E-15  5.83749E+01  1.62533E-06  1.0E-07
  7.500E-03  4.28368E-09  1.63466E-15  5.83749E+01  1.68137E-06  1.0E-07
  7.750E-03  4.57402E-09  1.63466E-15  5.83749E+01  1.73742E-06  1.0E-07
  8.000E-03  4.87388E-09  1.63466E-15  5.83749E+01  1.79346E-06  1.0E-07
  8.250E-03  5.18326E-09  1.63466E-15  5.83749E+01  1.84951E-06  1.0E-07
  8.500E-03  5.50215E-09  1.63466E-15  5.83749E+01  1.90555E-06  1.0E-07
  8.750E-03  5.83057E-09  1.63466E-15  5.83749E+01  1.96160E-06  1.0E-07
  9.000E-03  6.16850E-09  1.63466E-15  5.83749E+01  2.01765E-06  1.0E-07
  9.250E-03  6.51596E-09  1.63466E-15  5.83749E+01  2.07369E-06  1.0E-07
  9.500E-03  6.87293E-09  1.63466E-15  5.83749E+01  2.12974E-06  1.0E-07
  9.750E-03  7.23942E-09  1.63466E-15  5.83749E+01  2.18578E-06  1.0E-07
  1.000E-02  7.61544E-09  1.63466E-15  5.83749E+01  2.24183E-06  1.0E-07
  1.250E-02  1.18991E-08  1.63466E-15  5.83749E+01  2.80229E-06  1.0E-07
  1.500E-02  1.71347E-08  1.63466E-15  5.83749E+01  3.36275E-06  1.0E-07
  1.750E-02  2.33223E-08  1.63466E-15  5.83749E+01  3.92321E-06  1.0E-07
  2.000E-02  3.04617E-08  1.63466E-15  5.83749E+01  4.48367E-06  1.0E-07
  2.250E-02  3.85531E-08  1.63466E-15  5.83749E+01  5.04413E-06  1.0E-07
  2.500E-02  4.75965E-08  1.63466E-15  5.83748E+01  5.60459E-06  1.0E-07
  2.750E-02  5.75917E-08  1.63466E-15  5.83748E+01  6.16506E-06  1.0E-07
  3.000E-02  6.85389E-08  1.63466E-15  5.83748E+01  6.72552E-06  1.0E-07
  3.250E-02  8.04380E-08  1.63466E-15  5.83748E+01  7.28599E-06  1.0E-07
  3.500E-02  9.32891E-08  1.63466E-15  5.83747E+01  7.84646E-06  1.0E-07
  3.750E-02  1.07092E-07  1.63466E-15  5.83747E+01  8.40693E-06  1.0E-07
  4.000E-02  1.21847E-07  1.63466E-15  5.83747E+01  8.96740E-06  1.0E-07
  4.250E-02  1.37554E-07  1.63466E-15  5.83746E+01  9.52787E-06  1.0E-07
  4.500E-02  1.54213E-07  1.63466E-15  5.83746E+01  1.00884E-05  1.0E-07
  4.750E-02  1.71823E-07  1.63465E-15  5.83746E+01  1.06488E-05  1.0E-07
  5.000E-02  1.90386E-07  1.63465E-15  5.83745E+01  1.12093E-05  1.0E-07
  5.250E-02  2.09900E-07  1.63465E-15  5.83745E+01  1.17698E-05  1.0E-07
  5.500E-02  2.30367E-07  1.63465E-15  5.83744E+01  1.23303E-05  1.0E-07
  5.750E-02  2.51785E-07  1.63465E-15  5.83744E+01  1.28908E-05  1.0E-07
  6.000E-02  2.74156E-07  1.63465E-15  5.83743E+01  1.34513E-05  1.0E-07
  6.250E-02  2.97478E-07  1.63465E-15  5.83743E+01  1.40118E-05  1.0E-07
  6.500E-02  3.21752E-07  1.63464E-15  5.83742E+01  1.45723E-05  1.0E-07
  6.750E-02  3.46978E-07  1.63464E-15  5.83742E+01  1.51328E-05  1.0E-07
  7.000E-02  3.73156E-07  1.63464E-15  5.83741E+01  1.56933E-05  1.0E-07
  7.250E-02  4.00286E-07  1.63464E-15  5.83740E+01  1.62538E-05  1.0E-07
  7.500E-02  4.28368E-07  1.63464E-15  5.83740E+01  1.68143E-05  1.0E-07
  7.750E-02  4.57402E-07  1.63464E-15  5.83739E+01  1.73748E-05  1.0E-07
  8.000E-02  4.87388E-07  1.63463E-15  5.83739E+01  1.79353E-05  1.0E-07
  8.250E-02  5.18325E-07  1.63463E-15  5.83738E+01  1.84958E-05  1.0E-07
  8.500E-02  5.50215E-07  1.63463E-15  5.83737E+01  1.90564E-05  1.0E-07
  8.750E-02  5.83057E-07  1.63463E-15  5.83736E+01  1.96169E-05  1.0E-07
  9.000E-02  6.16850E-07  1.63463E-15  5.83736E+01  2.01774E-05  1.0E-07
  9.250E-02  6.51596E-07  1.63462E-15  5.83735E+01  2.07380E-05  1.0E-07
  9.500E-02  6.87293E-07  1.63462E-15  5.83734E+01  2.12985E-05  1.0E-07
  9.750E-02  7.23942E-07  1.63462E-15  5.83733E+01  2.18591E-05  1.0E-07
  1.000E-01  7.61543E-07  1.63462E-15  5.83732E+01  2.24196E-05  1.0E-07
  1.250E-01  1.18991E-06  1.63459E-15  5.83723E+01  2.80255E-05  1.0E-07
  1.500E-01  1.71347E-06  1.63456E-15  5.83711E+01  3.36320E-05  1.0E-07
  1.750E-01  2.33223E-06  1.63452E-15  5.83697E+01  3.92393E-05  1.0E-07
  2.000E-01  3.04617E-06  1.63447E-15  5.83681E+01  4.48475E-05  1.0E-07
  2.250E-01  3.85531E-06  1.63442E-15  5.83663E+01  5.04567E-05  1.0E-07
  2.500E-01  4.75964E-06  1.63437E-15  5.83643E+01  5.60670E-05  1.0E-07
  2.750E-01  5.75916E-06  1.63430E-15  5.83620E+01  6.16787E-05  1.0E-07
  3.000E-01  6.85388E-06  1.63424E-15  5.83596E+01  6.72917E-05  1.0E-07
  3.250E-01  8.04378E-06  1.63416E-15  5.83569E+01  7.29063E-05  1.0E-07
  3.500E-01  9.32888E-06  1.63408E-15  5.83541E+01  7.85225E-05  1.0E-07
  3.750E-01  1.07092E-05  1.63399E-15  5.83510E+01  8.41405E-05  1.0E-07
  4.000E-01  1.21846E-05  1.63390E-15  5.83477E+01  8.97605E-05  1.0E-07
  4.250E-01  1.37553E-05  1.63380E-15  5.83441E+01  9.53825E-05  1.0E-07
  4.500E-01  1.54212E-05  1.63370E-15  5.83404E+01  1.01007E-04  1.0E-07
  4.750E-01  1.71822E-05  1.63359E-15  5.83365E+01  1.06633E-04  1.0E-07
  5.000E-01  1.90385E-05  1.63347E-15  5.83323E+01  1.12262E-04  1.0E-07
  5.250E-01  2.09899E-05  1.63335E-15  5.83279E+01  1.17893E-04  1.0E-07
  5.500E-01  2.30365E-05  1.63322E-15  5.83234E+01  1.23528E-04  1.0E-07
  5.750E-01  2.51783E-05  1.63309E-15  5.83186E+01  1.29165E-04  1.0E-07
  6.000E-01  2.74153E-05  1.63295E-15  5.83136E+01  1.34804E-04  1.0E-07
  6.250E-01  2.97475E-05  1.63280E-15  5.83084E+01  1.40447E-04  1.0E-07
  6.500E-01  3.21749E-05  1.63265E-15  5.83029E+01  1.46094E-04  1.0E-07
  6.750E-01  3.46974E-05  1.63249E-15  5.82973E+01  1.51743E-04  1.0E-07
  7.000E-01  3.73152E-05  1.63233E-15  5.82914E+01  1.57396E-04  1.0E-07
  7.250E-01  4.00281E-05  1.63216E-15  5.82854E+01  1.63053E-04  1.0E-07
  7.500E-01  4.28362E-05  1.63198E-15  5.82791E+01  1.68713E-04  1.0E-07
  7.750E-01  4.57395E-05  1.63180E-15  5.82726E+01  1.74377E-04  1.0E-07
  8.000E-01  4.87380E-05  1.63161E-15  5.82659E+01  1.80045E-04  1.0E-07
  8.250E-01  5.18317E-05  1.63142E-15  5.82590E+01  1.85717E-04  1.0E-07
  8.500E-01  5.50205E-05  1.63122E-15  5.82519E+01  1.91394E-04  1.0E-07
  8.750E-01  5.83045E-05  1.63101E-15  5.82445E+01  1.97075E-04  1.0E-07
  9.000E-01  6.16838E-05  1.63080E-15  5.82370E+01  2.02760E-04  1.0E-07
  9.250E-01  6.51582E-05  1.63058E-15  5.82292E+01  2.08450E-04  1.0E-07
  9.500E-01  6.87277E-05  1.63036E-15  5.82213E+01  2.14144E-04  1.0E-07
  9.750E-01  7.23925E-05  1.63013E-15  5.82131E+01  2.19844E-04  1.0E-07
  1.000E+00  7.61524E-05  1.62990E-15  5.82047E+01  2.25548E-04  1.0E-07
  1.100E+00  9.21439E-05  1.62890E-15  5.81690E+01  2.48419E-04  1.0E-07
  1.200E+00  1.09658E-04  1.62781E-15  5.81300E+01  2.71380E-04  1.0E-07
  1.300E+00  1.28695E-04  1.62662E-15  5.80876E+01  2.94439E-04  1.0E-07
  1.400E+00  1.49255E-04  1.62534E-15  5.80419E+01  3.17606E-04  1.0E-07
  1.500E+00  1.71338E-04  1.62396E-15  5.79928E+01  3.40888E-04  1.0E-07
  1.600E+00  1.94942E-04  1.62250E-15  5.79404E+01  3.64293E-04  1.0E-07
  1.700E+00  2.20070E-04  1.62094E-15  5.78848E+01  3.87830E-04  1.0E-07
  1.800E+00  2.46720E-04  1.61929E-15  5.78258E+01  4.11508E-04  1.0E-07
  1.900E+00  2.74892E-04  1.61754E-15  5.77635E+01  4.35334E-04  1.0E-07
  2.000E+00  3.04586E-04  1.61571E-15  5.76980E+01  4.59317E-04  1.0E-07
  2.100E+00  3.35803E-04  1.61378E-15  5.76292E+01  4.83466E-04  1.0E-07
  2.200E+00  3.68542E-04  1.61177E-15  5.75572E+01  5.07789E-04  1.0E-07
  2.300E+00  4.02802E-04  1.60966E-15  5.74820E+01  5.32295E-04  1.0E-07
  2.400E+00  4.38585E-04  1.60746E-15  5.74036E+01  5.56991E-04  1.0E-07
  2.500E+00  4.75889E-04  1.60518E-15  5.73220E+01  5.81888E-04  1.0E-07
  2.600E+00  5.14715E-04  1.60281E-15  5.72372E+01  6.06992E-04  1.0E-07
  2.700E+00  5.55063E-04  1.60034E-15  5.71493E+01  6.32314E-04  1.0E-07
  2.800E+00  5.96931E-04  1.59780E-15  5.70583E+01  6.57861E-04  1.0E-07
  2.900E+00  6.40321E-04  1.59516E-15  5.69642E+01  6.83642E-04  1.0E-07
  3.000E+00  6.85233E-04  1.59244E-15  5.68670E+01  7.09666E-04  1.0E-07
  3.100E+00  7.31665E-04  1.58963E-15  5.67668E+01  7.35942E-04  1.0E-07
  3.200E+00  7.79618E-04  1.58674E-15  5.66635E+01  7.62479E-04  1.0E-07
  3.300E+00  8.29092E-04  1.58376E-15  5.65572E+01  7.89285E-04  1.0E-07
  3.400E+00  8.80086E-04  1.58070E-15  5.64480E+01  8.16369E-04  1.0E-07
  3.500E+00  9.32601E-04  1.57756E-15  5.63357E+01  8.43741E-04  1.0E-07
  3.600E+00  9.86636E-04  1.57434E-15  5.62206E+01  8.71409E-04  1.0E-07
  3.700E+00  1.04219E-03  1.57103E-15  5.61025E+01  8.99383E-04  1.0E-07
  3.800E+00  1.09927E-03  1.56764E-15  5.59816E+01  9.27671E-04  1.0E-07
  3.900E+00  1.15786E-03  1.56418E-15  5.58578E+01  9.56282E-04  1.0E-07
  4.000E+00  1.21797E-03  1.56063E-15  5.57312E+01  9.85227E-04  1.0E-07
  4.100E+00  1.27961E-03  1.55701E-15  5.56018E+01  1.01451E-03  1.0E-07
  4.200E+00  1.34276E-03  1.55331E-15  5.54697E+01  1.04415E-03  1.0E-07
  4.300E+00  1.40743E-03  1.54953E-15  5.53348E+01  1.07415E-03  1.0E-07
  4.400E+00  1.47362E-03  1.54568E-15  5.51972E+01  1.10452E-03  1.0E-07
  4.500E+00  1.54133E-03  1.54175E-15  5.50569E+01  1.13527E-03  1.0E-07
  4.600E+00  1.61056E-03  1.53775E-15  5.49140E+01  1.16640E-03  1.0E-07
  4.700E+00  1.68131E-03  1.53367E-15  5.47685E+01  1.19794E-03  1.0E-07
  4.800E+00  1.75357E-03  1.52953E-15  5.46204E+01  1.22988E-03  1.0E-07
  4.900E+00  1.82735E-03  1.52531E-15  5.44698E+01  1.26224E-03  1.0E-07
  5.000E+00  1.90265E-03  1.52102E-15  5.43166E+01  1.29503E-03  1.0E-07
  5.100E+00  1.97947E-03  1.51666E-15  5.41610E+01  1.32826E-03  1.0E-07
  5.200E+00  2.05780E-03  1.51223E-15  5.40029E+01  1.36193E-03  1.0E-07
  5.300E+00  2.13765E-03  1.50774E-15  5.38424E+01  1.39606E-03  1.0E-07
  5.400E+00  2.21902E-03  1.50318E-15  5.36795E+01  1.43066E-03  1.0E-07
  5.500E+00  2.30190E-03  1.49855E-15  5.35143E+01  1.46574E-03  1.0E-07
  5.600E+00  2.38630E-03  1.49386E-15  5.33468E+01  1.50130E-03  1.0E-07
  5.700E+00  2.47222E-03  1.48911E-15  5.31770E+01  1.53736E-03  1.0E-07
  5.800E+00  2.55965E-03  1.48429E-15  5.30050E+01  1.57393E-03  1.0E-07
  5.900E+00  2.64859E-03  1.47941E-15  5.28308E+01  1.61102E-03  1.0E-07
  6.000E+00  2.73905E-03  1.47447E-15  5.26544E+01  1.64864E-03  1.0E-07
  6.100E+00  2.83103E-03  1.46947E-15  5.24759E+01  1.68679E-03  1.0E-07
  6.200E+00  2.92452E-03  1.46442E-15  5.22953E+01  1.72550E-03  1.0E-07
  6.300E+00  3.01952E-03  1.45930E-15  5.21126E+01  1.76476E-03  1.0E-07
  6.400E+00  3.11604E-03  1.45413E-15  5.19279E+01  1.80460E-03  1.0E-07
  6.500E+00  3.21407E-03  1.44890E-15  5.17413E+01  1.84501E-03  1.0E-07
  6.600E+00  3.31362E-03  1.44362E-15  5.15527E+01  1.88603E-03  1.0E-07
  6.700E+00  3.41468E-03  1.43829E-15  5.13622E+01  1.92764E-03  1.0E-07
  6.800E+00  3.51725E-03  1.43290E-15  5.11699E+01  1.96987E-03  1.0E-07
  6.900E+00  3.62133E-03  1.42746E-15  5.09757E+01  2.01272E-03  1.0E-07
  7.000E+00  3.72692E-03  1.42198E-15  5.07797E+01  2.05621E-03  1.0E-07
  7.100E+00  3.83403E-03  1.41644E-15  5.05820E+01  2.10035E-03  1.0E-07
  7.200E+00  3.94265E-03  1.41085E-15  5.03825E+01  2.14515E-03  1.0E-07
  7.300E+00  4.05278E-03  1.40522E-15  5.01814E+01  2.19062E-03  1.0E-07
  7.400E+00  4.16442E-03  1.39955E-15  4.99787E+01  2.23677E-03  1.0E-07
  7.500E+00  4.27757E-03  1.39382E-15  4.97743E+01  2.28361E-03  1.0E-07
  7.600E+00  4.39223E-03  1.38806E-15  4.95684E+01  2.33116E-03  1.0E-07
  7.700E+00  4.50840E-03  1.38225E-15  4.93610E+01  2.37943E-03  1.0E-07
  7.800E+00  4.62608E-03  1.37640E-15  4.91521E+01  2.42842E-03  1.0E-07
  7.900E+00  4.74527E-03  1.37051E-15  4.89418E+01  2.47816E-03  1.0E-07
  8.000E+00  4.86597E-03  1.36458E-15  4.87300E+01  2.52865E-03  1.0E-07
  8.100E+00  4.98817E-03  1.35861E-15  4.85169E+01  2.57990E-03  1.0E-07
  8.200E+00  5.11188E-03  1.35261E-15  4.83025E+01  2.63193E-03  1.0E-07
  8.300E+00  5.23711E-03  1.34657E-15  4.80867E+01  2.68475E-03  1.0E-07
  8.400E+00  5.36383E-03  1.34049E-15  4.78698E+01  2.73837E-03  1.0E-07
  8.500E+00  5.49207E-03  1.33438E-15  4.76516E+01  2.79280E-03  1.0E-07
  8.600E+00  5.62181E-03  1.32824E-15  4.74322E+01  2.84806E-03  1.0E-07
  8.700E+00  5.75306E-03  1.32206E-15  4.72117E+01  2.90415E-03  1.0E-07
  8.800E+00  5.88581E-03  1.31586E-15  4.69901E+01  2.96110E-03  1.0E-07
  8.900E+00  6.02007E-03  1.30962E-15  4.67675E+01  3.01891E-03  1.0E-07
  9.000E+00  6.15583E-03  1.30336E-15  4.65438E+01  3.07759E-03  1.0E-07
  9.100E+00  6.29310E-03  1.29707E-15  4.63191E+01  3.13717E-03  1.0E-07
  9.200E+00  6.43187E-03  1.29075E-15  4.60935E+01  3.19765E-03  1.0E-07
  9.300E+00  6.57214E-03  1.28441E-15  4.58670E+01  3.25904E-03  1.0E-07
  9.400E+00  6.71392E-03  1.27804E-15  4.56396E+01  3.32136E-03  1.0E-07
  9.500E+00  6.85720E-03  1.27165E-15  4.54114E+01  3.38462E-03  1.0E-07
  9.600E+00  7.00198E-03  1.26524E-15  4.51824E+01  3.44884E-03  1.0E-07
  9.700E+00  7.14827E-03  1.25880E-15  4.49526E+01  3.51402E-03  1.0E-07
  9.800E+00  7.29605E-03  1.25235E-15  4.47221E+01  3.58019E-03  1.0E-07
  9.900E+00  7.44534E-03  1.24587E-15  4.44909E+01  3.64735E-03  1.0E-07
  1.000E+01  7.59612E-03  1.23938E-15  4.42590E+01  3.71552E-03  1.0E-07
  1.025E+01  7.97965E-03  1.22307E-15  4.36767E+01  3.89044E-03  1.0E-07
  1.050E+01  8.37255E-03  1.20667E-15  4.30911E+01  4.07196E-03  1.0E-07
  1.075E+01  8.77480E-03  1.19020E-15  4.25028E+01  4.26030E-03  1.0E-07
  1.100E+01  9.18641E-03  1.17366E-15  4.19121E+01  4.45569E-03  1.0E-07
  1.125E+01  9.60736E-03  1.15707E-15  4.13197E+01  4.65834E-03  1.0E-07
  1.150E+01  1.00376E-02  1.14045E-15  4.07261E+01  4.86848E-03  1.0E-07
  1.175E+01  1.04773E-02  1.12380E-15  4.01316E+01  5.08635E-03  1.0E-07
  1.200E+01  1.09262E-02  1.10715E-15  3.95369E+01  5.31216E-03  1.0E-07
  1.225E+01  1.13844E-02  1.09050E-15  3.89423E+01  5.54617E-03  1.0E-07
  1.250E+01  1.18520E-02  1.07386E-15  3.83483E+01  5.78860E-03  1.0E-07
  1.275E+01  1.23288E-02  1.05726E-15  3.77554E+01  6.03970E-03  1.0E-07
  1.300E+01  1.28150E-02  1.04069E-15  3.71639E+01  6.29971E-03  1.0E-07
  1.325E+01  1.33104E-02  1.02418E-15  3.65742E+01  6.56887E-03  1.0E-07
  1.350E+01  1.38150E-02  1.00773E-15  3.59866E+01  6.84742E-03  1.0E-07
  1.375E+01  1.43290E-02  9.91349E-16  3.54017E+01  7.13562E-03  1.0E-07
  1.400E+01  1.48521E-02  9.75050E-16  3.48197E+01  7.43370E-03  1.0E-07
  1.425E+01  1.53845E-02  9.58842E-16  3.42409E+01  7.74193E-03  1.0E-07
  1.450E+01  1.59262E-02  9.42734E-16  3.36656E+01  8.06056E-03  1.0E-07
  1.475E+01  1.64770E-02  9.26733E-16  3.30942E+01  8.38982E-03  1.0E-07
  1.500E+01  1.70371E-02  9.10848E-16  3.25270E+01  8.72999E-03  1.0E-07
