 #
 # Subroutine ELSEPA. Elastic scattering of electrons and positrons
 #                    by neutral atoms and positive ions
 #
 # Projectile: electron
 # Kinetic energy = 5.00000E+02 eV = 1.83747E+01 a.u.
 #
 # Element: Hg,  Z =  80,  atomic weight = 2.00590E+02 g/mol
 #
 # Nuclear model: Fermi distribution
 #                Average radius = 6.26355E-13 cm
 #                Skin thickness = 5.46000E-14 cm
 #
 # Number of electrons = 80
 #
 # Electron density: Read from file z_080.den   
 #                   Number of data points =  763
 #                   Volume integral = 8.00000E+01
 #
 # Riley-Truhlar exchange potential
 #
 # Total elastic cross section = 3.70369E-16 cm**2 = 1.32261E+01 a0**2
 # 1st transport cross section = 9.94958E-17 cm**2 = 3.55306E+00 a0**2
 # 2nd transport cross section = 1.25479E-16 cm**2 = 4.48094E+00 a0**2
 #
 #
 # Differential cross section:                       MU=(1-COS(THETA))/2
 #
 #  THETA        MU          DCS          DCS        Sherman      error
 #  (deg)                 (cm**2/sr)   (a0**2/sr)    function
 #----------------------------------------------------------------------
  0.000E+00  0.00000E+00  2.59345E-15  9.26137E+01  0.00000E+00  1.0E-07
  1.000E-04  7.61557E-13  2.59345E-15  9.26137E+01  6.82700E-09  1.0E-07
  1.250E-04  1.18994E-12  2.59345E-15  9.26137E+01  8.53375E-09  1.0E-07
  1.500E-04  1.71346E-12  2.59345E-15  9.26137E+01  1.02405E-08  1.0E-07
  1.750E-04  2.33225E-12  2.59345E-15  9.26137E+01  1.19472E-08  1.0E-07
  2.000E-04  3.04617E-12  2.59345E-15  9.26137E+01  1.36540E-08  1.0E-07
  2.250E-04  3.85530E-12  2.59345E-15  9.26137E+01  1.53607E-08  1.0E-07
  2.500E-04  4.75964E-12  2.59345E-15  9.26137E+01  1.70675E-08  1.0E-07
  2.750E-04  5.75917E-12  2.59345E-15  9.26137E+01  1.87742E-08  1.0E-07
  3.000E-04  6.85391E-12  2.59345E-15  9.26137E+01  2.04810E-08  1.0E-07
  3.250E-04  8.04379E-12  2.59345E-15  9.26137E+01  2.21877E-08  1.0E-07
  3.500E-04  9.32893E-12  2.59345E-15  9.26137E+01  2.38945E-08  1.0E-07
  3.750E-04  1.07092E-11  2.59345E-15  9.26137E+01  2.56012E-08  1.0E-07
  4.000E-04  1.21847E-11  2.59345E-15  9.26137E+01  2.73080E-08  1.0E-07
  4.250E-04  1.37554E-11  2.59345E-15  9.26137E+01  2.90147E-08  1.0E-07
  4.500E-04  1.54213E-11  2.59345E-15  9.26137E+01  3.07215E-08  1.0E-07
  4.750E-04  1.71823E-11  2.59345E-15  9.26137E+01  3.24282E-08  1.0E-07
  5.000E-04  1.90386E-11  2.59345E-15  9.26137E+01  3.41350E-08  1.0E-07
  5.250E-04  2.09900E-11  2.59345E-15  9.26137E+01  3.58417E-08  1.0E-07
  5.500E-04  2.30367E-11  2.59345E-15  9.26137E+01  3.75485E-08  1.0E-07
  5.750E-04  2.51785E-11  2.59345E-15  9.26137E+01  3.92552E-08  1.0E-07
  6.000E-04  2.74156E-11  2.59345E-15  9.26137E+01  4.09620E-08  1.0E-07
  6.250E-04  2.97478E-11  2.59345E-15  9.26137E+01  4.26687E-08  1.0E-07
  6.500E-04  3.21752E-11  2.59345E-15  9.26137E+01  4.43755E-08  1.0E-07
  6.750E-04  3.46979E-11  2.59345E-15  9.26137E+01  4.60822E-08  1.0E-07
  7.000E-04  3.73157E-11  2.59345E-15  9.26137E+01  4.77890E-08  1.0E-07
  7.250E-04  4.00286E-11  2.59345E-15  9.26137E+01  4.94957E-08  1.0E-07
  7.500E-04  4.28368E-11  2.59345E-15  9.26137E+01  5.12025E-08  1.0E-07
  7.750E-04  4.57402E-11  2.59345E-15  9.26137E+01  5.29092E-08  1.0E-07
  8.000E-04  4.87388E-11  2.59345E-15  9.26137E+01  5.46160E-08  1.0E-07
  8.250E-04  5.18325E-11  2.59345E-15  9.26137E+01  5.63227E-08  1.0E-07
  8.500E-04  5.50215E-11  2.59345E-15  9.26137E+01  5.80295E-08  1.0E-07
  8.750E-04  5.83057E-11  2.59345E-15  9.26137E+01  5.97362E-08  1.0E-07
  9.000E-04  6.16850E-11  2.59345E-15  9.26137E+01  6.14430E-08  1.0E-07
  9.250E-04  6.51595E-11  2.59345E-15  9.26137E+01  6.31497E-08  1.0E-07
  9.500E-04  6.87293E-11  2.59345E-15  9.26137E+01  6.48565E-08  1.0E-07
  9.750E-04  7.23943E-11  2.59345E-15  9.26137E+01  6.65632E-08  1.0E-07
  1.000E-03  7.61544E-11  2.59345E-15  9.26137E+01  6.82700E-08  1.0E-07
  1.250E-03  1.18991E-10  2.59345E-15  9.26137E+01  8.53375E-08  1.0E-07
  1.500E-03  1.71347E-10  2.59345E-15  9.26137E+01  1.02405E-07  1.0E-07
  1.750E-03  2.33223E-10  2.59345E-15  9.26137E+01  1.19472E-07  1.0E-07
  2.000E-03  3.04617E-10  2.59345E-15  9.26137E+01  1.36540E-07  1.0E-07
  2.250E-03  3.85531E-10  2.59345E-15  9.26137E+01  1.53607E-07  1.0E-07
  2.500E-03  4.75965E-10  2.59345E-15  9.26137E+01  1.70675E-07  1.0E-07
  2.750E-03  5.75917E-10  2.59345E-15  9.26137E+01  1.87742E-07  1.0E-07
  3.000E-03  6.85389E-10  2.59345E-15  9.26137E+01  2.04810E-07  1.0E-07
  3.250E-03  8.04380E-10  2.59345E-15  9.26137E+01  2.21877E-07  1.0E-07
  3.500E-03  9.32891E-10  2.59345E-15  9.26137E+01  2.38945E-07  1.0E-07
  3.750E-03  1.07092E-09  2.59345E-15  9.26137E+01  2.56012E-07  1.0E-07
  4.000E-03  1.21847E-09  2.59345E-15  9.26137E+01  2.73080E-07  1.0E-07
  4.250E-03  1.37554E-09  2.59345E-15  9.26137E+01  2.90147E-07  1.0E-07
  4.500E-03  1.54213E-09  2.59345E-15  9.26137E+01  3.07215E-07  1.0E-07
  4.750E-03  1.71823E-09  2.59345E-15  9.26137E+01  3.24282E-07  1.0E-07
  5.000E-03  1.90386E-09  2.59345E-15  9.26137E+01  3.41350E-07  1.0E-07
  5.250E-03  2.09900E-09  2.59345E-15  9.26137E+01  3.58417E-07  1.0E-07
  5.500E-03  2.30367E-09  2.59345E-15  9.26136E+01  3.75485E-07  1.0E-07
  5.750E-03  2.51785E-09  2.59345E-15  9.26136E+01  3.92552E-07  1.0E-07
  6.000E-03  2.74156E-09  2.59345E-15  9.26136E+01  4.09620E-07  1.0E-07
  6.250E-03  2.97478E-09  2.59345E-15  9.26136E+01  4.26687E-07  1.0E-07
  6.500E-03  3.21752E-09  2.59345E-15  9.26136E+01  4.43755E-07  1.0E-07
  6.750E-03  3.46978E-09  2.59345E-15  9.26136E+01  4.60822E-07  1.0E-07
  7.000E-03  3.73156E-09  2.59345E-15  9.26136E+01  4.77890E-07  1.0E-07
  7.250E-03  4.00286E-09  2.59345E-15  9.26136E+01  4.94957E-07  1.0E-07
  7.500E-03  4.28368E-09  2.59345E-15  9.26136E+01  5.12025E-07  1.0E-07
  7.750E-03  4.57402E-09  2.59345E-15  9.26136E+01  5.29092E-07  1.0E-07
  8.000E-03  4.87388E-09  2.59344E-15  9.26136E+01  5.46160E-07  1.0E-07
  8.250E-03  5.18326E-09  2.59344E-15  9.26136E+01  5.63227E-07  1.0E-07
  8.500E-03  5.50215E-09  2.59344E-15  9.26136E+01  5.80295E-07  1.0E-07
  8.750E-03  5.83057E-09  2.59344E-15  9.26136E+01  5.97362E-07  1.0E-07
  9.000E-03  6.16850E-09  2.59344E-15  9.26136E+01  6.14430E-07  1.0E-07
  9.250E-03  6.51596E-09  2.59344E-15  9.26136E+01  6.31497E-07  1.0E-07
  9.500E-03  6.87293E-09  2.59344E-15  9.26136E+01  6.48565E-07  1.0E-07
  9.750E-03  7.23942E-09  2.59344E-15  9.26136E+01  6.65632E-07  1.0E-07
  1.000E-02  7.61544E-09  2.59344E-15  9.26136E+01  6.82699E-07  1.0E-07
  1.250E-02  1.18991E-08  2.59344E-15  9.26135E+01  8.53374E-07  1.0E-07
  1.500E-02  1.71347E-08  2.59344E-15  9.26134E+01  1.02405E-06  1.0E-07
  1.750E-02  2.33223E-08  2.59344E-15  9.26133E+01  1.19472E-06  1.0E-07
  2.000E-02  3.04617E-08  2.59343E-15  9.26132E+01  1.36540E-06  1.0E-07
  2.250E-02  3.85531E-08  2.59343E-15  9.26130E+01  1.53607E-06  1.0E-07
  2.500E-02  4.75965E-08  2.59342E-15  9.26129E+01  1.70675E-06  1.0E-07
  2.750E-02  5.75917E-08  2.59342E-15  9.26127E+01  1.87742E-06  1.0E-07
  3.000E-02  6.85389E-08  2.59341E-15  9.26125E+01  2.04809E-06  1.0E-07
  3.250E-02  8.04380E-08  2.59341E-15  9.26123E+01  2.21877E-06  1.0E-07
  3.500E-02  9.32891E-08  2.59340E-15  9.26121E+01  2.38944E-06  1.0E-07
  3.750E-02  1.07092E-07  2.59340E-15  9.26118E+01  2.56011E-06  1.0E-07
  4.000E-02  1.21847E-07  2.59339E-15  9.26116E+01  2.73078E-06  1.0E-07
  4.250E-02  1.37554E-07  2.59338E-15  9.26113E+01  2.90145E-06  1.0E-07
  4.500E-02  1.54213E-07  2.59337E-15  9.26110E+01  3.07213E-06  1.0E-07
  4.750E-02  1.71823E-07  2.59336E-15  9.26107E+01  3.24280E-06  1.0E-07
  5.000E-02  1.90386E-07  2.59336E-15  9.26104E+01  3.41347E-06  1.0E-07
  5.250E-02  2.09900E-07  2.59335E-15  9.26101E+01  3.58414E-06  1.0E-07
  5.500E-02  2.30367E-07  2.59334E-15  9.26097E+01  3.75481E-06  1.0E-07
  5.750E-02  2.51785E-07  2.59333E-15  9.26094E+01  3.92548E-06  1.0E-07
  6.000E-02  2.74156E-07  2.59332E-15  9.26090E+01  4.09615E-06  1.0E-07
  6.250E-02  2.97478E-07  2.59330E-15  9.26086E+01  4.26681E-06  1.0E-07
  6.500E-02  3.21752E-07  2.59329E-15  9.26082E+01  4.43748E-06  1.0E-07
  6.750E-02  3.46978E-07  2.59328E-15  9.26077E+01  4.60815E-06  1.0E-07
  7.000E-02  3.73156E-07  2.59327E-15  9.26073E+01  4.77881E-06  1.0E-07
  7.250E-02  4.00286E-07  2.59326E-15  9.26068E+01  4.94948E-06  1.0E-07
  7.500E-02  4.28368E-07  2.59324E-15  9.26063E+01  5.12014E-06  1.0E-07
  7.750E-02  4.57402E-07  2.59323E-15  9.26058E+01  5.29081E-06  1.0E-07
  8.000E-02  4.87388E-07  2.59321E-15  9.26053E+01  5.46147E-06  1.0E-07
  8.250E-02  5.18325E-07  2.59320E-15  9.26048E+01  5.63213E-06  1.0E-07
  8.500E-02  5.50215E-07  2.59318E-15  9.26042E+01  5.80280E-06  1.0E-07
  8.750E-02  5.83057E-07  2.59317E-15  9.26037E+01  5.97346E-06  1.0E-07
  9.000E-02  6.16850E-07  2.59315E-15  9.26031E+01  6.14412E-06  1.0E-07
  9.250E-02  6.51596E-07  2.59313E-15  9.26025E+01  6.31478E-06  1.0E-07
  9.500E-02  6.87293E-07  2.59312E-15  9.26019E+01  6.48544E-06  1.0E-07
  9.750E-02  7.23942E-07  2.59310E-15  9.26013E+01  6.65609E-06  1.0E-07
  1.000E-01  7.61543E-07  2.59308E-15  9.26006E+01  6.82675E-06  1.0E-07
  1.250E-01  1.18991E-06  2.59288E-15  9.25933E+01  8.53326E-06  1.0E-07
  1.500E-01  1.71347E-06  2.59262E-15  9.25843E+01  1.02397E-05  1.0E-07
  1.750E-01  2.33223E-06  2.59233E-15  9.25737E+01  1.19459E-05  1.0E-07
  2.000E-01  3.04617E-06  2.59198E-15  9.25614E+01  1.36520E-05  1.0E-07
  2.250E-01  3.85531E-06  2.59160E-15  9.25476E+01  1.53579E-05  1.0E-07
  2.500E-01  4.75964E-06  2.59116E-15  9.25321E+01  1.70636E-05  1.0E-07
  2.750E-01  5.75916E-06  2.59068E-15  9.25149E+01  1.87691E-05  1.0E-07
  3.000E-01  6.85388E-06  2.59016E-15  9.24962E+01  2.04743E-05  1.0E-07
  3.250E-01  8.04378E-06  2.58959E-15  9.24758E+01  2.21793E-05  1.0E-07
  3.500E-01  9.32888E-06  2.58897E-15  9.24538E+01  2.38839E-05  1.0E-07
  3.750E-01  1.07092E-05  2.58831E-15  9.24302E+01  2.55882E-05  1.0E-07
  4.000E-01  1.21846E-05  2.58760E-15  9.24050E+01  2.72922E-05  1.0E-07
  4.250E-01  1.37553E-05  2.58685E-15  9.23781E+01  2.89957E-05  1.0E-07
  4.500E-01  1.54212E-05  2.58605E-15  9.23496E+01  3.06989E-05  1.0E-07
  4.750E-01  1.71822E-05  2.58521E-15  9.23195E+01  3.24017E-05  1.0E-07
  5.000E-01  1.90385E-05  2.58432E-15  9.22878E+01  3.41040E-05  1.0E-07
  5.250E-01  2.09899E-05  2.58339E-15  9.22545E+01  3.58058E-05  1.0E-07
  5.500E-01  2.30365E-05  2.58241E-15  9.22196E+01  3.75072E-05  1.0E-07
  5.750E-01  2.51783E-05  2.58139E-15  9.21831E+01  3.92080E-05  1.0E-07
  6.000E-01  2.74153E-05  2.58032E-15  9.21450E+01  4.09083E-05  1.0E-07
  6.250E-01  2.97475E-05  2.57921E-15  9.21052E+01  4.26080E-05  1.0E-07
  6.500E-01  3.21749E-05  2.57805E-15  9.20639E+01  4.43072E-05  1.0E-07
  6.750E-01  3.46974E-05  2.57685E-15  9.20210E+01  4.60057E-05  1.0E-07
  7.000E-01  3.73152E-05  2.57560E-15  9.19765E+01  4.77035E-05  1.0E-07
  7.250E-01  4.00281E-05  2.57431E-15  9.19304E+01  4.94007E-05  1.0E-07
  7.500E-01  4.28362E-05  2.57298E-15  9.18827E+01  5.10973E-05  1.0E-07
  7.750E-01  4.57395E-05  2.57160E-15  9.18335E+01  5.27930E-05  1.0E-07
  8.000E-01  4.87380E-05  2.57018E-15  9.17827E+01  5.44881E-05  1.0E-07
  8.250E-01  5.18317E-05  2.56871E-15  9.17303E+01  5.61823E-05  1.0E-07
  8.500E-01  5.50205E-05  2.56720E-15  9.16763E+01  5.78758E-05  1.0E-07
  8.750E-01  5.83045E-05  2.56564E-15  9.16208E+01  5.95685E-05  1.0E-07
  9.000E-01  6.16838E-05  2.56404E-15  9.15637E+01  6.12603E-05  1.0E-07
  9.250E-01  6.51582E-05  2.56240E-15  9.15050E+01  6.29512E-05  1.0E-07
  9.500E-01  6.87277E-05  2.56072E-15  9.14448E+01  6.46412E-05  1.0E-07
  9.750E-01  7.23925E-05  2.55899E-15  9.13830E+01  6.63303E-05  1.0E-07
  1.000E+00  7.61524E-05  2.55721E-15  9.13197E+01  6.80184E-05  1.0E-07
  1.100E+00  9.21439E-05  2.54969E-15  9.10512E+01  7.47608E-05  1.0E-07
  1.200E+00  1.09658E-04  2.54149E-15  9.07583E+01  8.14856E-05  1.0E-07
  1.300E+00  1.28695E-04  2.53262E-15  9.04415E+01  8.81909E-05  1.0E-07
  1.400E+00  1.49255E-04  2.52308E-15  9.01010E+01  9.48749E-05  1.0E-07
  1.500E+00  1.71338E-04  2.51290E-15  8.97373E+01  1.01535E-04  1.0E-07
  1.600E+00  1.94942E-04  2.50207E-15  8.93507E+01  1.08170E-04  1.0E-07
  1.700E+00  2.20070E-04  2.49062E-15  8.89417E+01  1.14778E-04  1.0E-07
  1.800E+00  2.46720E-04  2.47855E-15  8.85108E+01  1.21355E-04  1.0E-07
  1.900E+00  2.74892E-04  2.46588E-15  8.80583E+01  1.27900E-04  1.0E-07
  2.000E+00  3.04586E-04  2.45263E-15  8.75849E+01  1.34411E-04  1.0E-07
  2.100E+00  3.35803E-04  2.43880E-15  8.70910E+01  1.40883E-04  1.0E-07
  2.200E+00  3.68542E-04  2.42441E-15  8.65772E+01  1.47316E-04  1.0E-07
  2.300E+00  4.02802E-04  2.40947E-15  8.60439E+01  1.53706E-04  1.0E-07
  2.400E+00  4.38585E-04  2.39401E-15  8.54918E+01  1.60050E-04  1.0E-07
  2.500E+00  4.75889E-04  2.37804E-15  8.49213E+01  1.66344E-04  1.0E-07
  2.600E+00  5.14715E-04  2.36157E-15  8.43332E+01  1.72587E-04  1.0E-07
  2.700E+00  5.55063E-04  2.34462E-15  8.37280E+01  1.78773E-04  1.0E-07
  2.800E+00  5.96931E-04  2.32721E-15  8.31063E+01  1.84901E-04  1.0E-07
  2.900E+00  6.40321E-04  2.30936E-15  8.24688E+01  1.90966E-04  1.0E-07
  3.000E+00  6.85233E-04  2.29108E-15  8.18160E+01  1.96963E-04  1.0E-07
  3.100E+00  7.31665E-04  2.27239E-15  8.11485E+01  2.02890E-04  1.0E-07
  3.200E+00  7.79618E-04  2.25331E-15  8.04671E+01  2.08742E-04  1.0E-07
  3.300E+00  8.29092E-04  2.23385E-15  7.97723E+01  2.14514E-04  1.0E-07
  3.400E+00  8.80086E-04  2.21404E-15  7.90649E+01  2.20203E-04  1.0E-07
  3.500E+00  9.32601E-04  2.19389E-15  7.83453E+01  2.25802E-04  1.0E-07
  3.600E+00  9.86636E-04  2.17342E-15  7.76144E+01  2.31307E-04  1.0E-07
  3.700E+00  1.04219E-03  2.15266E-15  7.68727E+01  2.36713E-04  1.0E-07
  3.800E+00  1.09927E-03  2.13160E-15  7.61209E+01  2.42015E-04  1.0E-07
  3.900E+00  1.15786E-03  2.11028E-15  7.53596E+01  2.47207E-04  1.0E-07
  4.000E+00  1.21797E-03  2.08872E-15  7.45895E+01  2.52282E-04  1.0E-07
  4.100E+00  1.27961E-03  2.06692E-15  7.38111E+01  2.57235E-04  1.0E-07
  4.200E+00  1.34276E-03  2.04491E-15  7.30252E+01  2.62060E-04  1.0E-07
  4.300E+00  1.40743E-03  2.02271E-15  7.22323E+01  2.66750E-04  1.0E-07
  4.400E+00  1.47362E-03  2.00033E-15  7.14331E+01  2.71298E-04  1.0E-07
  4.500E+00  1.54133E-03  1.97779E-15  7.06282E+01  2.75696E-04  1.0E-07
  4.600E+00  1.61056E-03  1.95511E-15  6.98181E+01  2.79939E-04  1.0E-07
  4.700E+00  1.68131E-03  1.93229E-15  6.90035E+01  2.84017E-04  1.0E-07
  4.800E+00  1.75357E-03  1.90937E-15  6.81849E+01  2.87923E-04  1.0E-07
  4.900E+00  1.82735E-03  1.88635E-15  6.73629E+01  2.91650E-04  1.0E-07
  5.000E+00  1.90265E-03  1.86326E-15  6.65381E+01  2.95187E-04  1.0E-07
  5.100E+00  1.97947E-03  1.84010E-15  6.57110E+01  2.98528E-04  1.0E-07
  5.200E+00  2.05780E-03  1.81689E-15  6.48822E+01  3.01662E-04  1.0E-07
  5.300E+00  2.13765E-03  1.79364E-15  6.40521E+01  3.04580E-04  1.0E-07
  5.400E+00  2.21902E-03  1.77038E-15  6.32213E+01  3.07273E-04  1.0E-07
  5.500E+00  2.30190E-03  1.74711E-15  6.23903E+01  3.09731E-04  1.0E-07
  5.600E+00  2.38630E-03  1.72384E-15  6.15595E+01  3.11942E-04  1.0E-07
  5.700E+00  2.47222E-03  1.70060E-15  6.07295E+01  3.13898E-04  1.0E-07
  5.800E+00  2.55965E-03  1.67739E-15  5.99006E+01  3.15587E-04  1.0E-07
  5.900E+00  2.64859E-03  1.65422E-15  5.90733E+01  3.16997E-04  1.0E-07
  6.000E+00  2.73905E-03  1.63111E-15  5.82481E+01  3.18117E-04  1.0E-07
  6.100E+00  2.83103E-03  1.60807E-15  5.74253E+01  3.18935E-04  1.0E-07
  6.200E+00  2.92452E-03  1.58511E-15  5.66054E+01  3.19438E-04  1.0E-07
  6.300E+00  3.01952E-03  1.56224E-15  5.57887E+01  3.19615E-04  1.0E-07
  6.400E+00  3.11604E-03  1.53947E-15  5.49756E+01  3.19452E-04  1.0E-07
  6.500E+00  3.21407E-03  1.51681E-15  5.41664E+01  3.18935E-04  1.0E-07
  6.600E+00  3.31362E-03  1.49427E-15  5.33614E+01  3.18052E-04  1.0E-07
  6.700E+00  3.41468E-03  1.47186E-15  5.25611E+01  3.16787E-04  1.0E-07
  6.800E+00  3.51725E-03  1.44959E-15  5.17657E+01  3.15127E-04  1.0E-07
  6.900E+00  3.62133E-03  1.42746E-15  5.09754E+01  3.13056E-04  1.0E-07
  7.000E+00  3.72692E-03  1.40548E-15  5.01906E+01  3.10560E-04  1.0E-07
  7.100E+00  3.83403E-03  1.38366E-15  4.94116E+01  3.07622E-04  1.0E-07
  7.200E+00  3.94265E-03  1.36202E-15  4.86385E+01  3.04227E-04  1.0E-07
  7.300E+00  4.05278E-03  1.34054E-15  4.78716E+01  3.00359E-04  1.0E-07
  7.400E+00  4.16442E-03  1.31925E-15  4.71111E+01  2.96000E-04  1.0E-07
  7.500E+00  4.27757E-03  1.29814E-15  4.63573E+01  2.91134E-04  1.0E-07
  7.600E+00  4.39223E-03  1.27722E-15  4.56103E+01  2.85743E-04  1.0E-07
  7.700E+00  4.50840E-03  1.25650E-15  4.48703E+01  2.79809E-04  1.0E-07
  7.800E+00  4.62608E-03  1.23597E-15  4.41375E+01  2.73313E-04  1.0E-07
  7.900E+00  4.74527E-03  1.21566E-15  4.34120E+01  2.66237E-04  1.0E-07
  8.000E+00  4.86597E-03  1.19555E-15  4.26940E+01  2.58562E-04  1.0E-07
  8.100E+00  4.98817E-03  1.17566E-15  4.19836E+01  2.50268E-04  1.0E-07
  8.200E+00  5.11188E-03  1.15598E-15  4.12809E+01  2.41335E-04  1.0E-07
  8.300E+00  5.23711E-03  1.13652E-15  4.05860E+01  2.31742E-04  1.0E-07
  8.400E+00  5.36383E-03  1.11729E-15  3.98991E+01  2.21469E-04  1.0E-07
  8.500E+00  5.49207E-03  1.09828E-15  3.92202E+01  2.10495E-04  1.0E-07
  8.600E+00  5.62181E-03  1.07949E-15  3.85495E+01  1.98798E-04  1.0E-07
  8.700E+00  5.75306E-03  1.06094E-15  3.78868E+01  1.86355E-04  1.0E-07
  8.800E+00  5.88581E-03  1.04262E-15  3.72325E+01  1.73145E-04  1.0E-07
  8.900E+00  6.02007E-03  1.02452E-15  3.65864E+01  1.59144E-04  1.0E-07
  9.000E+00  6.15583E-03  1.00666E-15  3.59486E+01  1.44329E-04  1.0E-07
  9.100E+00  6.29310E-03  9.89038E-16  3.53192E+01  1.28676E-04  1.0E-07
  9.200E+00  6.43187E-03  9.71647E-16  3.46982E+01  1.12161E-04  1.0E-07
  9.300E+00  6.57214E-03  9.54492E-16  3.40855E+01  9.47589E-05  1.0E-07
  9.400E+00  6.71392E-03  9.37572E-16  3.34813E+01  7.64452E-05  1.0E-07
  9.500E+00  6.85720E-03  9.20888E-16  3.28855E+01  5.71941E-05  1.0E-07
  9.600E+00  7.00198E-03  9.04439E-16  3.22981E+01  3.69797E-05  1.0E-07
  9.700E+00  7.14827E-03  8.88225E-16  3.17191E+01  1.57756E-05  1.0E-07
  9.800E+00  7.29605E-03  8.72246E-16  3.11485E+01 -6.44500E-06  1.0E-07
  9.900E+00  7.44534E-03  8.56501E-16  3.05862E+01 -2.97093E-05  1.0E-07
  1.000E+01  7.59612E-03  8.40990E-16  3.00323E+01 -5.40450E-05  1.0E-07
  1.025E+01  7.97965E-03  8.03226E-16  2.86837E+01 -1.19757E-04  1.0E-07
  1.050E+01  8.37255E-03  7.66896E-16  2.73864E+01 -1.92794E-04  1.0E-07
  1.075E+01  8.77480E-03  7.31978E-16  2.61394E+01 -2.73622E-04  1.0E-07
  1.100E+01  9.18641E-03  6.98446E-16  2.49420E+01 -3.62726E-04  1.0E-07
  1.125E+01  9.60736E-03  6.66268E-16  2.37929E+01 -4.60609E-04  1.0E-07
  1.150E+01  1.00376E-02  6.35414E-16  2.26910E+01 -5.67788E-04  1.0E-07
  1.175E+01  1.04773E-02  6.05846E-16  2.16352E+01 -6.84797E-04  1.0E-07
  1.200E+01  1.09262E-02  5.77530E-16  2.06240E+01 -8.12190E-04  1.0E-07
  1.225E+01  1.13844E-02  5.50426E-16  1.96561E+01 -9.50532E-04  1.0E-07
  1.250E+01  1.18520E-02  5.24497E-16  1.87301E+01 -1.10041E-03  1.0E-07
  1.275E+01  1.23288E-02  4.99701E-16  1.78447E+01 -1.26242E-03  1.0E-07
  1.300E+01  1.28150E-02  4.76001E-16  1.69983E+01 -1.43719E-03  1.0E-07
  1.325E+01  1.33104E-02  4.53355E-16  1.61896E+01 -1.62534E-03  1.0E-07
  1.350E+01  1.38150E-02  4.31725E-16  1.54172E+01 -1.82752E-03  1.0E-07
  1.375E+01  1.43290E-02  4.11072E-16  1.46796E+01 -2.04440E-03  1.0E-07
  1.400E+01  1.48521E-02  3.91356E-16  1.39756E+01 -2.27665E-03  1.0E-07
  1.425E+01  1.53845E-02  3.72541E-16  1.33037E+01 -2.52498E-03  1.0E-07
  1.450E+01  1.59262E-02  3.54588E-16  1.26626E+01 -2.79008E-03  1.0E-07
  1.475E+01  1.64770E-02  3.37463E-16  1.20510E+01 -3.07268E-03  1.0E-07
  1.500E+01  1.70371E-02  3.21130E-16  1.14677E+01 -3.37351E-03  1.0E-07
  1.525E+01  1.76063E-02  3.05555E-16  1.09116E+01 -3.69332E-03  1.0E-07
  1.550E+01  1.81848E-02  2.90705E-16  1.03813E+01 -4.03287E-03  1.0E-07
