 #
 # Subroutine ELSEPA. Elastic scattering of electrons and positrons
 #                    by neutral atoms and positive ions
 #
 # Projectile: electron
 # Kinetic energy = 8.00000E+02 eV = 2.93995E+01 a.u.
 #
 # Element: Si,  Z =  14,  atomic weight = 2.80855E+01 g/mol
 #
 # Nuclear model: Fermi distribution
 #                Average radius = 3.25245E-13 cm
 #                Skin thickness = 5.46000E-14 cm
 #
 # Number of electrons = 14
 #
 # Electron density: analytical TFD model
 #                   A1 =  5.06491D-02 ,   ALPHA1 = 2.52626D+01
 #                   A2 =  4.01742D-01 ,   ALPHA2 = 4.82409D+00
 #                   A3 =  5.47609D-01 ,   ALPHA3 = 1.41708D+00
 #                   Volume integral = 1.40000E+01
 #
 # Furness-McCarthy exchange potential
 #
 # Correlation-polarization potential (Buckingham):
 #                           Alpha = 5.38000E-24 cm**3
 #                            Bpol = 6.84653E+00
 #
 # Total elastic cross section = 1.40455E-16 cm**2 = 5.01575E+00 a0**2
 # 1st transport cross section = 1.86677E-17 cm**2 = 6.66636E-01 a0**2
 # 2nd transport cross section = 2.92699E-17 cm**2 = 1.04525E+00 a0**2
 #
 #
 # Differential cross section:                       MU=(1-COS(THETA))/2
 #
 #  THETA        MU          DCS          DCS        Sherman      error
 #  (deg)                 (cm**2/sr)   (a0**2/sr)    function
 #----------------------------------------------------------------------
  0.000E+00  0.00000E+00  4.13205E-15  1.47558E+02  0.00000E+00  1.3E-07
  1.000E-04  7.61557E-13  4.13205E-15  1.47558E+02  6.38542E-12  1.3E-07
  1.250E-04  1.18994E-12  4.13205E-15  1.47558E+02  7.98177E-12  1.3E-07
  1.500E-04  1.71346E-12  4.13205E-15  1.47558E+02  9.57812E-12  1.3E-07
  1.750E-04  2.33225E-12  4.13205E-15  1.47558E+02  1.11745E-11  1.3E-07
  2.000E-04  3.04617E-12  4.13205E-15  1.47558E+02  1.27708E-11  1.3E-07
  2.250E-04  3.85530E-12  4.13205E-15  1.47558E+02  1.43672E-11  1.3E-07
  2.500E-04  4.75964E-12  4.13205E-15  1.47558E+02  1.59635E-11  1.3E-07
  2.750E-04  5.75917E-12  4.13205E-15  1.47558E+02  1.75599E-11  1.3E-07
  3.000E-04  6.85391E-12  4.13205E-15  1.47558E+02  1.91562E-11  1.3E-07
  3.250E-04  8.04379E-12  4.13205E-15  1.47558E+02  2.07526E-11  1.3E-07
  3.500E-04  9.32893E-12  4.13205E-15  1.47558E+02  2.23489E-11  1.3E-07
  3.750E-04  1.07092E-11  4.13205E-15  1.47558E+02  2.39453E-11  1.3E-07
  4.000E-04  1.21847E-11  4.13205E-15  1.47558E+02  2.55416E-11  1.3E-07
  4.250E-04  1.37554E-11  4.13205E-15  1.47558E+02  2.71380E-11  1.3E-07
  4.500E-04  1.54213E-11  4.13205E-15  1.47558E+02  2.87343E-11  1.3E-07
  4.750E-04  1.71823E-11  4.13205E-15  1.47558E+02  3.03307E-11  1.3E-07
  5.000E-04  1.90386E-11  4.13205E-15  1.47558E+02  3.19270E-11  1.3E-07
  5.250E-04  2.09900E-11  4.13205E-15  1.47558E+02  3.35234E-11  1.3E-07
  5.500E-04  2.30367E-11  4.13205E-15  1.47558E+02  3.51197E-11  1.3E-07
  5.750E-04  2.51785E-11  4.13205E-15  1.47558E+02  3.67161E-11  1.3E-07
  6.000E-04  2.74156E-11  4.13205E-15  1.47558E+02  3.83124E-11  1.3E-07
  6.250E-04  2.97478E-11  4.13205E-15  1.47558E+02  3.99088E-11  1.3E-07
  6.500E-04  3.21752E-11  4.13205E-15  1.47558E+02  4.15051E-11  1.3E-07
  6.750E-04  3.46979E-11  4.13205E-15  1.47558E+02  4.31014E-11  1.3E-07
  7.000E-04  3.73157E-11  4.13205E-15  1.47558E+02  4.46978E-11  1.3E-07
  7.250E-04  4.00286E-11  4.13205E-15  1.47558E+02  4.62941E-11  1.3E-07
  7.500E-04  4.28368E-11  4.13205E-15  1.47558E+02  4.78904E-11  1.3E-07
  7.750E-04  4.57402E-11  4.13205E-15  1.47558E+02  4.94868E-11  1.3E-07
  8.000E-04  4.87388E-11  4.13205E-15  1.47558E+02  5.10831E-11  1.3E-07
  8.250E-04  5.18325E-11  4.13205E-15  1.47558E+02  5.26794E-11  1.3E-07
  8.500E-04  5.50215E-11  4.13205E-15  1.47558E+02  5.42758E-11  1.3E-07
  8.750E-04  5.83057E-11  4.13205E-15  1.47558E+02  5.58721E-11  1.3E-07
  9.000E-04  6.16850E-11  4.13205E-15  1.47558E+02  5.74684E-11  1.3E-07
  9.250E-04  6.51595E-11  4.13205E-15  1.47558E+02  5.90648E-11  1.3E-07
  9.500E-04  6.87293E-11  4.13205E-15  1.47558E+02  6.06611E-11  1.3E-07
  9.750E-04  7.23943E-11  4.13205E-15  1.47558E+02  6.22574E-11  1.3E-07
  1.000E-03  7.61544E-11  4.13205E-15  1.47558E+02  6.38537E-11  1.3E-07
  1.250E-03  1.18991E-10  4.13205E-15  1.47558E+02  7.98169E-11  1.3E-07
  1.500E-03  1.71347E-10  4.13204E-15  1.47558E+02  9.57798E-11  1.3E-07
  1.750E-03  2.33223E-10  4.13204E-15  1.47558E+02  1.11742E-10  1.3E-07
  2.000E-03  3.04617E-10  4.13204E-15  1.47558E+02  1.27705E-10  1.3E-07
  2.250E-03  3.85531E-10  4.13204E-15  1.47558E+02  1.43667E-10  1.3E-07
  2.500E-03  4.75965E-10  4.13203E-15  1.47558E+02  1.59629E-10  1.3E-07
  2.750E-03  5.75917E-10  4.13203E-15  1.47557E+02  1.75590E-10  1.3E-07
  3.000E-03  6.85389E-10  4.13202E-15  1.47557E+02  1.91551E-10  1.3E-07
  3.250E-03  8.04380E-10  4.13202E-15  1.47557E+02  2.07511E-10  1.3E-07
  3.500E-03  9.32891E-10  4.13201E-15  1.47557E+02  2.23471E-10  1.3E-07
  3.750E-03  1.07092E-09  4.13201E-15  1.47557E+02  2.39430E-10  1.3E-07
  4.000E-03  1.21847E-09  4.13200E-15  1.47556E+02  2.55388E-10  1.3E-07
  4.250E-03  1.37554E-09  4.13199E-15  1.47556E+02  2.71346E-10  1.3E-07
  4.500E-03  1.54213E-09  4.13198E-15  1.47556E+02  2.87303E-10  1.3E-07
  4.750E-03  1.71823E-09  4.13198E-15  1.47556E+02  3.03260E-10  1.3E-07
  5.000E-03  1.90386E-09  4.13197E-15  1.47555E+02  3.19215E-10  1.3E-07
  5.250E-03  2.09900E-09  4.13196E-15  1.47555E+02  3.35170E-10  1.3E-07
  5.500E-03  2.30367E-09  4.13195E-15  1.47555E+02  3.51124E-10  1.3E-07
  5.750E-03  2.51785E-09  4.13194E-15  1.47554E+02  3.67077E-10  1.3E-07
  6.000E-03  2.74156E-09  4.13193E-15  1.47554E+02  3.83029E-10  1.3E-07
  6.250E-03  2.97478E-09  4.13192E-15  1.47554E+02  3.98980E-10  1.3E-07
  6.500E-03  3.21752E-09  4.13191E-15  1.47553E+02  4.14930E-10  1.3E-07
  6.750E-03  3.46978E-09  4.13190E-15  1.47553E+02  4.30879E-10  1.3E-07
  7.000E-03  3.73156E-09  4.13189E-15  1.47552E+02  4.46827E-10  1.3E-07
  7.250E-03  4.00286E-09  4.13188E-15  1.47552E+02  4.62774E-10  1.3E-07
  7.500E-03  4.28368E-09  4.13187E-15  1.47552E+02  4.78719E-10  1.3E-07
  7.750E-03  4.57402E-09  4.13185E-15  1.47551E+02  4.94664E-10  1.3E-07
  8.000E-03  4.87388E-09  4.13184E-15  1.47551E+02  5.10607E-10  1.3E-07
  8.250E-03  5.18326E-09  4.13183E-15  1.47550E+02  5.26548E-10  1.3E-07
  8.500E-03  5.50215E-09  4.13181E-15  1.47550E+02  5.42488E-10  1.3E-07
  8.750E-03  5.83057E-09  4.13180E-15  1.47549E+02  5.58427E-10  1.3E-07
  9.000E-03  6.16850E-09  4.13178E-15  1.47549E+02  5.74365E-10  1.3E-07
  9.250E-03  6.51596E-09  4.13177E-15  1.47548E+02  5.90300E-10  1.3E-07
  9.500E-03  6.87293E-09  4.13175E-15  1.47548E+02  6.06235E-10  1.3E-07
  9.750E-03  7.23942E-09  4.13174E-15  1.47547E+02  6.22168E-10  1.3E-07
  1.000E-02  7.61544E-09  4.13172E-15  1.47546E+02  6.38099E-10  1.3E-07
  1.250E-02  1.18991E-08  4.13153E-15  1.47540E+02  7.97312E-10  1.3E-07
  1.500E-02  1.71347E-08  4.13130E-15  1.47532E+02  9.56317E-10  1.3E-07
  1.750E-02  2.33223E-08  4.13103E-15  1.47522E+02  1.11507E-09  1.3E-07
  2.000E-02  3.04617E-08  4.13072E-15  1.47511E+02  1.27354E-09  1.3E-07
  2.250E-02  3.85531E-08  4.13037E-15  1.47498E+02  1.43168E-09  1.3E-07
  2.500E-02  4.75965E-08  4.12997E-15  1.47484E+02  1.58944E-09  1.3E-07
  2.750E-02  5.75917E-08  4.12954E-15  1.47468E+02  1.74678E-09  1.3E-07
  3.000E-02  6.85389E-08  4.12906E-15  1.47451E+02  1.90368E-09  1.3E-07
  3.250E-02  8.04380E-08  4.12854E-15  1.47433E+02  2.06007E-09  1.3E-07
  3.500E-02  9.32891E-08  4.12798E-15  1.47413E+02  2.21593E-09  1.3E-07
  3.750E-02  1.07092E-07  4.12738E-15  1.47391E+02  2.37121E-09  1.3E-07
  4.000E-02  1.21847E-07  4.12673E-15  1.47368E+02  2.52587E-09  1.3E-07
  4.250E-02  1.37554E-07  4.12605E-15  1.47344E+02  2.67988E-09  1.3E-07
  4.500E-02  1.54213E-07  4.12532E-15  1.47318E+02  2.83318E-09  1.3E-07
  4.750E-02  1.71823E-07  4.12456E-15  1.47291E+02  2.98574E-09  1.3E-07
  5.000E-02  1.90386E-07  4.12375E-15  1.47262E+02  3.13753E-09  1.3E-07
  5.250E-02  2.09900E-07  4.12290E-15  1.47232E+02  3.28849E-09  1.3E-07
  5.500E-02  2.30367E-07  4.12201E-15  1.47200E+02  3.43859E-09  1.3E-07
  5.750E-02  2.51785E-07  4.12109E-15  1.47167E+02  3.58780E-09  1.3E-07
  6.000E-02  2.74156E-07  4.12012E-15  1.47132E+02  3.73606E-09  1.3E-07
  6.250E-02  2.97478E-07  4.11910E-15  1.47096E+02  3.88334E-09  1.3E-07
  6.500E-02  3.21752E-07  4.11805E-15  1.47058E+02  4.02961E-09  1.3E-07
  6.750E-02  3.46978E-07  4.11696E-15  1.47019E+02  4.17482E-09  1.3E-07
  7.000E-02  3.73156E-07  4.11583E-15  1.46979E+02  4.31893E-09  1.2E-07
  7.250E-02  4.00286E-07  4.11466E-15  1.46937E+02  4.46192E-09  1.2E-07
  7.500E-02  4.28368E-07  4.11345E-15  1.46894E+02  4.60372E-09  1.2E-07
  7.750E-02  4.57402E-07  4.11220E-15  1.46849E+02  4.74432E-09  1.2E-07
  8.000E-02  4.87388E-07  4.11091E-15  1.46803E+02  4.88367E-09  1.2E-07
  8.250E-02  5.18325E-07  4.10958E-15  1.46756E+02  5.02173E-09  1.2E-07
  8.500E-02  5.50215E-07  4.10821E-15  1.46707E+02  5.15847E-09  1.2E-07
  8.750E-02  5.83057E-07  4.10680E-15  1.46656E+02  5.29385E-09  1.2E-07
  9.000E-02  6.16850E-07  4.10535E-15  1.46605E+02  5.42783E-09  1.2E-07
  9.250E-02  6.51596E-07  4.10386E-15  1.46551E+02  5.56038E-09  1.2E-07
  9.500E-02  6.87293E-07  4.10233E-15  1.46497E+02  5.69146E-09  1.2E-07
  9.750E-02  7.23942E-07  4.10077E-15  1.46441E+02  5.82104E-09  1.2E-07
  1.000E-01  7.61543E-07  4.09916E-15  1.46384E+02  5.94907E-09  1.2E-07
  1.250E-01  1.18991E-06  4.08102E-15  1.45736E+02  7.13698E-09  1.1E-07
  1.500E-01  1.71347E-06  4.05920E-15  1.44957E+02  8.13405E-09  1.0E-07
  1.750E-01  2.33223E-06  4.03390E-15  1.44053E+02  8.91077E-09  1.0E-07
  2.000E-01  3.04617E-06  4.00533E-15  1.43033E+02  9.44230E-09  1.0E-07
  2.250E-01  3.85531E-06  3.97376E-15  1.41906E+02  9.70912E-09  1.0E-07
  2.500E-01  4.75964E-06  3.93944E-15  1.40680E+02  9.69774E-09  1.0E-07
  2.750E-01  5.75916E-06  3.90266E-15  1.39367E+02  9.40116E-09  1.0E-07
  3.000E-01  6.85388E-06  3.86371E-15  1.37976E+02  8.81945E-09  1.0E-07
  3.250E-01  8.04378E-06  3.82289E-15  1.36518E+02  7.96002E-09  1.0E-07
  3.500E-01  9.32888E-06  3.78049E-15  1.35004E+02  6.83788E-09  1.0E-07
  3.750E-01  1.07092E-05  3.73681E-15  1.33444E+02  5.47570E-09  1.0E-07
  4.000E-01  1.21846E-05  3.69213E-15  1.31848E+02  0.00000E+00  1.0E-07
  4.250E-01  1.37553E-05  3.64673E-15  1.30227E+02  0.00000E+00  1.0E-07
  4.500E-01  1.54212E-05  3.60088E-15  1.28590E+02  0.00000E+00  1.0E-07
  4.750E-01  1.71822E-05  3.55481E-15  1.26945E+02  0.00000E+00  1.0E-07
  5.000E-01  1.90385E-05  3.50875E-15  1.25300E+02  0.00000E+00  1.0E-07
  5.250E-01  2.09899E-05  3.46292E-15  1.23663E+02  0.00000E+00  1.0E-07
  5.500E-01  2.30365E-05  3.41748E-15  1.22040E+02 -7.42746E-09  1.0E-07
  5.750E-01  2.51783E-05  3.37259E-15  1.20438E+02 -9.11442E-09  1.0E-07
  6.000E-01  2.74153E-05  3.32841E-15  1.18860E+02 -1.05818E-08  1.0E-07
  6.250E-01  2.97475E-05  3.28504E-15  1.17311E+02 -1.17701E-08  1.0E-07
  6.500E-01  3.21749E-05  3.24256E-15  1.15794E+02 -1.26236E-08  1.0E-07
  6.750E-01  3.46974E-05  3.20106E-15  1.14312E+02 -1.30917E-08  1.0E-07
  7.000E-01  3.73152E-05  3.16058E-15  1.12866E+02 -1.31305E-08  1.0E-07
  7.250E-01  4.00281E-05  3.12115E-15  1.11458E+02 -1.27037E-08  1.0E-07
  7.500E-01  4.28362E-05  3.08279E-15  1.10088E+02 -1.17839E-08  1.0E-07
  7.750E-01  4.57395E-05  3.04549E-15  1.08756E+02 -1.03532E-08  1.0E-07
  8.000E-01  4.87380E-05  3.00923E-15  1.07462E+02  0.00000E+00  1.0E-07
  8.250E-01  5.18317E-05  2.97399E-15  1.06203E+02  0.00000E+00  1.0E-07
  8.500E-01  5.50205E-05  2.93974E-15  1.04980E+02  0.00000E+00  1.0E-07
  8.750E-01  5.83045E-05  2.90641E-15  1.03790E+02  0.00000E+00  1.0E-07
  9.000E-01  6.16838E-05  2.87397E-15  1.02631E+02  0.00000E+00  1.0E-07
  9.250E-01  6.51582E-05  2.84235E-15  1.01502E+02  0.00000E+00  1.0E-07
  9.500E-01  6.87277E-05  2.81151E-15  1.00401E+02  1.34351E-08  1.0E-07
  9.750E-01  7.23925E-05  2.78137E-15  9.93244E+01  1.84647E-08  1.0E-07
  1.000E+00  7.61524E-05  2.75188E-15  9.82715E+01  2.37692E-08  1.0E-07
  1.100E+00  9.21439E-05  2.63940E-15  9.42548E+01  4.66832E-08  1.0E-07
  1.200E+00  1.09658E-04  2.53366E-15  9.04785E+01  7.00978E-08  1.0E-07
  1.300E+00  1.28695E-04  2.43311E-15  8.68881E+01  9.23079E-08  1.0E-07
  1.400E+00  1.49255E-04  2.33751E-15  8.34740E+01  1.13656E-07  1.0E-07
  1.500E+00  1.71338E-04  2.24731E-15  8.02529E+01  1.36299E-07  1.0E-07
  1.600E+00  1.94942E-04  2.16307E-15  7.72446E+01  1.63160E-07  1.0E-07
  1.700E+00  2.20070E-04  2.08494E-15  7.44545E+01  1.96544E-07  1.0E-07
  1.800E+00  2.46720E-04  2.01250E-15  7.18678E+01  2.37073E-07  1.0E-07
  1.900E+00  2.74892E-04  1.94494E-15  6.94549E+01  2.83476E-07  1.0E-07
  2.000E+00  3.04586E-04  1.88129E-15  6.71820E+01  3.33302E-07  1.0E-07
  2.100E+00  3.35803E-04  1.82080E-15  6.50220E+01  3.84194E-07  1.0E-07
  2.200E+00  3.68542E-04  1.76307E-15  6.29604E+01  4.35061E-07  1.0E-07
  2.300E+00  4.02802E-04  1.70803E-15  6.09950E+01  4.86613E-07  1.0E-07
  2.400E+00  4.38585E-04  1.65580E-15  5.91296E+01  5.40994E-07  1.0E-07
  2.500E+00  4.75889E-04  1.60646E-15  5.73676E+01  6.00716E-07  1.0E-07
  2.600E+00  5.14715E-04  1.55995E-15  5.57068E+01  6.67422E-07  1.0E-07
  2.700E+00  5.55063E-04  1.51602E-15  5.41379E+01  7.41097E-07  1.0E-07
  2.800E+00  5.96931E-04  1.47427E-15  5.26473E+01  8.20122E-07  1.0E-07
  2.900E+00  6.40321E-04  1.43435E-15  5.12214E+01  9.02143E-07  1.0E-07
  3.000E+00  6.85233E-04  1.39596E-15  4.98506E+01  9.85295E-07  1.0E-07
  3.100E+00  7.31665E-04  1.35900E-15  4.85306E+01  1.06917E-06  1.0E-07
  3.200E+00  7.79618E-04  1.32347E-15  4.72618E+01  1.15505E-06  1.0E-07
  3.300E+00  8.29092E-04  1.28943E-15  4.60462E+01  1.24528E-06  1.0E-07
  3.400E+00  8.80086E-04  1.25689E-15  4.48845E+01  1.34213E-06  1.0E-07
  3.500E+00  9.32601E-04  1.22580E-15  4.37741E+01  1.44669E-06  1.0E-07
  3.600E+00  9.86636E-04  1.19599E-15  4.27095E+01  1.55832E-06  1.0E-07
  3.700E+00  1.04219E-03  1.16727E-15  4.16838E+01  1.67507E-06  1.0E-07
  3.800E+00  1.09927E-03  1.13947E-15  4.06911E+01  1.79469E-06  1.0E-07
  3.900E+00  1.15786E-03  1.11249E-15  3.97278E+01  1.91585E-06  1.0E-07
  4.000E+00  1.21797E-03  1.08632E-15  3.87934E+01  2.03887E-06  1.0E-07
  4.100E+00  1.27961E-03  1.06099E-15  3.78887E+01  2.16559E-06  1.0E-07
  4.200E+00  1.34276E-03  1.03652E-15  3.70149E+01  2.29856E-06  1.0E-07
  4.300E+00  1.40743E-03  1.01292E-15  3.61719E+01  2.43978E-06  1.0E-07
  4.400E+00  1.47362E-03  9.90112E-16  3.53575E+01  2.58973E-06  1.0E-07
  4.500E+00  1.54133E-03  9.68012E-16  3.45683E+01  2.74720E-06  1.0E-07
  4.600E+00  1.61056E-03  9.46516E-16  3.38007E+01  2.90997E-06  1.0E-07
  4.700E+00  1.68131E-03  9.25551E-16  3.30520E+01  3.07600E-06  1.0E-07
  4.800E+00  1.75357E-03  9.05089E-16  3.23213E+01  3.24458E-06  1.0E-07
  4.900E+00  1.82735E-03  8.85141E-16  3.16090E+01  3.41678E-06  1.0E-07
  5.000E+00  1.90265E-03  8.65735E-16  3.09160E+01  3.59501E-06  1.0E-07
  5.100E+00  1.97947E-03  8.46886E-16  3.02428E+01  3.78192E-06  1.0E-07
  5.200E+00  2.05780E-03  8.28578E-16  2.95890E+01  3.97909E-06  1.0E-07
  5.300E+00  2.13765E-03  8.10766E-16  2.89530E+01  4.18635E-06  1.0E-07
  5.400E+00  2.21902E-03  7.93391E-16  2.83325E+01  4.40191E-06  1.0E-07
  5.500E+00  2.30190E-03  7.76399E-16  2.77257E+01  4.62338E-06  1.0E-07
  5.600E+00  2.38630E-03  7.59762E-16  2.71316E+01  4.84905E-06  1.0E-07
  5.700E+00  2.47222E-03  7.43480E-16  2.65502E+01  5.07897E-06  1.0E-07
  5.800E+00  2.55965E-03  7.27571E-16  2.59820E+01  5.31499E-06  1.0E-07
  5.900E+00  2.64859E-03  7.12055E-16  2.54279E+01  5.56001E-06  1.0E-07
  6.000E+00  2.73905E-03  6.96933E-16  2.48879E+01  5.81660E-06  1.0E-07
  6.100E+00  2.83103E-03  6.82189E-16  2.43614E+01  6.08582E-06  1.0E-07
  6.200E+00  2.92452E-03  6.67788E-16  2.38471E+01  6.36671E-06  1.0E-07
  6.300E+00  3.01952E-03  6.53693E-16  2.33438E+01  6.65692E-06  1.0E-07
  6.400E+00  3.11604E-03  6.39878E-16  2.28505E+01  6.95401E-06  1.0E-07
  6.500E+00  3.21407E-03  6.26335E-16  2.23668E+01  7.25683E-06  1.0E-07
  6.600E+00  3.31362E-03  6.13073E-16  2.18932E+01  7.56630E-06  1.0E-07
  6.700E+00  3.41468E-03  6.00105E-16  2.14301E+01  7.88512E-06  1.0E-07
  6.800E+00  3.51725E-03  5.87442E-16  2.09779E+01  8.21658E-06  1.0E-07
  6.900E+00  3.62133E-03  5.75079E-16  2.05364E+01  8.56297E-06  1.0E-07
  7.000E+00  3.72692E-03  5.62998E-16  2.01050E+01  8.92459E-06  1.0E-07
  7.100E+00  3.83403E-03  5.51175E-16  1.96828E+01  9.29961E-06  1.0E-07
  7.200E+00  3.94265E-03  5.39588E-16  1.92690E+01  9.68520E-06  1.0E-07
  7.300E+00  4.05278E-03  5.28226E-16  1.88633E+01  1.00790E-05  1.0E-07
  7.400E+00  4.16442E-03  5.17089E-16  1.84656E+01  1.04808E-05  1.0E-07
  7.500E+00  4.27757E-03  5.06188E-16  1.80763E+01  1.08924E-05  1.0E-07
  7.600E+00  4.39223E-03  4.95532E-16  1.76958E+01  1.13173E-05  1.0E-07
  7.700E+00  4.50840E-03  4.85123E-16  1.73241E+01  1.17591E-05  1.0E-07
  7.800E+00  4.62608E-03  4.74953E-16  1.69609E+01  1.22195E-05  1.0E-07
  7.900E+00  4.74527E-03  4.65005E-16  1.66056E+01  1.26977E-05  1.0E-07
  8.000E+00  4.86597E-03  4.55263E-16  1.62577E+01  1.31910E-05  1.0E-07
  8.100E+00  4.98817E-03  4.45715E-16  1.59168E+01  1.36962E-05  1.0E-07
  8.200E+00  5.11188E-03  4.36356E-16  1.55826E+01  1.42115E-05  1.0E-07
  8.300E+00  5.23711E-03  4.27191E-16  1.52553E+01  1.47375E-05  1.0E-07
  8.400E+00  5.36383E-03  4.18226E-16  1.49351E+01  1.52776E-05  1.0E-07
  8.500E+00  5.49207E-03  4.09466E-16  1.46223E+01  1.58358E-05  1.0E-07
  8.600E+00  5.62181E-03  4.00908E-16  1.43167E+01  1.64155E-05  1.0E-07
  8.700E+00  5.75306E-03  3.92542E-16  1.40179E+01  1.70175E-05  1.0E-07
  8.800E+00  5.88581E-03  3.84357E-16  1.37256E+01  1.76398E-05  1.0E-07
  8.900E+00  6.02007E-03  3.76341E-16  1.34394E+01  1.82788E-05  1.0E-07
  9.000E+00  6.15583E-03  3.68487E-16  1.31589E+01  1.89312E-05  1.0E-07
  9.100E+00  6.29310E-03  3.60795E-16  1.28842E+01  1.95961E-05  1.0E-07
  9.200E+00  6.43187E-03  3.53269E-16  1.26155E+01  2.02754E-05  1.0E-07
  9.300E+00  6.57214E-03  3.45914E-16  1.23528E+01  2.09738E-05  1.0E-07
  9.400E+00  6.71392E-03  3.38730E-16  1.20963E+01  2.16957E-05  1.0E-07
  9.500E+00  6.85720E-03  3.31711E-16  1.18456E+01  2.24441E-05  1.0E-07
  9.600E+00  7.00198E-03  3.24849E-16  1.16006E+01  2.32182E-05  1.0E-07
  9.700E+00  7.14827E-03  3.18134E-16  1.13608E+01  2.40146E-05  1.0E-07
  9.800E+00  7.29605E-03  3.11560E-16  1.11260E+01  2.48291E-05  1.0E-07
  9.900E+00  7.44534E-03  3.05122E-16  1.08961E+01  2.56586E-05  1.0E-07
  1.000E+01  7.59612E-03  2.98823E-16  1.06712E+01  2.65036E-05  1.0E-07
  1.025E+01  7.97965E-03  2.83696E-16  1.01310E+01  2.87126E-05  1.0E-07
  1.050E+01  8.37255E-03  2.69424E-16  9.62130E+00  3.11039E-05  1.0E-07
  1.075E+01  8.77480E-03  2.55912E-16  9.13877E+00  3.36443E-05  1.0E-07
  1.100E+01  9.18641E-03  2.43128E-16  8.68226E+00  3.63064E-05  1.0E-07
  1.125E+01  9.60736E-03  2.31073E-16  8.25176E+00  3.91588E-05  1.0E-07
  1.150E+01  1.00376E-02  2.19681E-16  7.84497E+00  4.22105E-05  1.0E-07
  1.175E+01  1.04773E-02  2.08899E-16  7.45992E+00  4.53982E-05  1.0E-07
  1.200E+01  1.09262E-02  1.98723E-16  7.09652E+00  4.87642E-05  1.0E-07
  1.225E+01  1.13844E-02  1.89121E-16  6.75363E+00  5.23708E-05  1.0E-07
  1.250E+01  1.18520E-02  1.80034E-16  6.42914E+00  5.61536E-05  1.0E-07
  1.275E+01  1.23288E-02  1.71447E-16  6.12249E+00  6.00965E-05  1.0E-07
  1.300E+01  1.28150E-02  1.63347E-16  5.83322E+00  6.42950E-05  1.0E-07
  1.325E+01  1.33104E-02  1.55688E-16  5.55972E+00  6.87287E-05  1.0E-07
  1.350E+01  1.38150E-02  1.48441E-16  5.30091E+00  7.33196E-05  1.0E-07
  1.375E+01  1.43290E-02  1.41599E-16  5.05658E+00  7.81488E-05  1.0E-07
  1.400E+01  1.48521E-02  1.35134E-16  4.82571E+00  8.32697E-05  1.0E-07
  1.425E+01  1.53845E-02  1.29012E-16  4.60711E+00  8.85774E-05  1.0E-07
  1.450E+01  1.59262E-02  1.23224E-16  4.40040E+00  9.40859E-05  1.0E-07
