 #
 # Subroutine ELSEPA. Elastic scattering of electrons and positrons
 #                    by neutral atoms and positive ions
 #
 # Projectile: electron
 # Kinetic energy = 6.00000E+01 eV = 2.20496E+00 a.u.
 #
 #  ***  WARNING: Energy is too low.
 #                The reliability of the results is questionable.
 #
 # Element: Si,  Z =  14,  atomic weight = 2.80855E+01 g/mol
 #
 # Nuclear model: Fermi distribution
 #                Average radius = 3.25245E-13 cm
 #                Skin thickness = 5.46000E-14 cm
 #
 # Number of electrons = 14
 #
 # Electron density: analytical TFD model
 #                   A1 =  5.06491D-02 ,   ALPHA1 = 2.52626D+01
 #                   A2 =  4.01742D-01 ,   ALPHA2 = 4.82409D+00
 #                   A3 =  5.47609D-01 ,   ALPHA3 = 1.41708D+00
 #                   Volume integral = 1.40000E+01
 #
 # Furness-McCarthy exchange potential
 #
 # Correlation-polarization potential (Buckingham):
 #                           Alpha = 5.38000E-24 cm**3
 #                            Bpol = 1.00000E+00
 #
 # Total elastic cross section = 1.28623E-15 cm**2 = 4.59320E+01 a0**2
 # 1st transport cross section = 5.59711E-16 cm**2 = 1.99877E+01 a0**2
 # 2nd transport cross section = 4.63532E-16 cm**2 = 1.65530E+01 a0**2
 #
 #
 # Differential cross section:                       MU=(1-COS(THETA))/2
 #
 #  THETA        MU          DCS          DCS        Sherman      error
 #  (deg)                 (cm**2/sr)   (a0**2/sr)    function
 #----------------------------------------------------------------------
  0.000E+00  0.00000E+00  6.07156E-15  2.16820E+02  0.00000E+00  1.0E-07
  1.000E-04  7.61557E-13  6.07156E-15  2.16820E+02  4.10720E-10  1.0E-07
  1.250E-04  1.18994E-12  6.07156E-15  2.16820E+02  5.13399E-10  1.0E-07
  1.500E-04  1.71346E-12  6.07156E-15  2.16820E+02  6.16079E-10  1.0E-07
  1.750E-04  2.33225E-12  6.07156E-15  2.16820E+02  7.18759E-10  1.0E-07
  2.000E-04  3.04617E-12  6.07156E-15  2.16820E+02  8.21439E-10  1.0E-07
  2.250E-04  3.85530E-12  6.07156E-15  2.16820E+02  9.24119E-10  1.0E-07
  2.500E-04  4.75964E-12  6.07156E-15  2.16820E+02  1.02680E-09  1.0E-07
  2.750E-04  5.75917E-12  6.07156E-15  2.16820E+02  1.12948E-09  1.0E-07
  3.000E-04  6.85391E-12  6.07156E-15  2.16820E+02  1.23216E-09  1.0E-07
  3.250E-04  8.04379E-12  6.07156E-15  2.16820E+02  1.33484E-09  1.0E-07
  3.500E-04  9.32893E-12  6.07156E-15  2.16820E+02  1.43752E-09  1.0E-07
  3.750E-04  1.07092E-11  6.07156E-15  2.16820E+02  1.54020E-09  1.0E-07
  4.000E-04  1.21847E-11  6.07156E-15  2.16820E+02  1.64288E-09  1.0E-07
  4.250E-04  1.37554E-11  6.07156E-15  2.16820E+02  1.74556E-09  1.0E-07
  4.500E-04  1.54213E-11  6.07156E-15  2.16820E+02  1.84824E-09  1.0E-07
  4.750E-04  1.71823E-11  6.07156E-15  2.16820E+02  1.95092E-09  1.0E-07
  5.000E-04  1.90386E-11  6.07156E-15  2.16820E+02  2.05360E-09  1.0E-07
  5.250E-04  2.09900E-11  6.07156E-15  2.16820E+02  2.15628E-09  1.0E-07
  5.500E-04  2.30367E-11  6.07156E-15  2.16820E+02  2.25896E-09  1.0E-07
  5.750E-04  2.51785E-11  6.07156E-15  2.16820E+02  2.36164E-09  1.0E-07
  6.000E-04  2.74156E-11  6.07156E-15  2.16820E+02  2.46432E-09  1.0E-07
  6.250E-04  2.97478E-11  6.07156E-15  2.16820E+02  2.56700E-09  1.0E-07
  6.500E-04  3.21752E-11  6.07156E-15  2.16820E+02  2.66968E-09  1.0E-07
  6.750E-04  3.46979E-11  6.07156E-15  2.16820E+02  2.77236E-09  1.0E-07
  7.000E-04  3.73157E-11  6.07156E-15  2.16820E+02  2.87504E-09  1.0E-07
  7.250E-04  4.00286E-11  6.07156E-15  2.16820E+02  2.97772E-09  1.0E-07
  7.500E-04  4.28368E-11  6.07156E-15  2.16820E+02  3.08040E-09  1.0E-07
  7.750E-04  4.57402E-11  6.07156E-15  2.16820E+02  3.18308E-09  1.0E-07
  8.000E-04  4.87388E-11  6.07156E-15  2.16820E+02  3.28576E-09  1.0E-07
  8.250E-04  5.18325E-11  6.07156E-15  2.16820E+02  3.38844E-09  1.0E-07
  8.500E-04  5.50215E-11  6.07156E-15  2.16820E+02  3.49112E-09  1.0E-07
  8.750E-04  5.83057E-11  6.07156E-15  2.16820E+02  3.59380E-09  1.0E-07
  9.000E-04  6.16850E-11  6.07156E-15  2.16820E+02  3.69648E-09  1.0E-07
  9.250E-04  6.51595E-11  6.07156E-15  2.16820E+02  3.79916E-09  1.0E-07
  9.500E-04  6.87293E-11  6.07156E-15  2.16820E+02  3.90184E-09  1.0E-07
  9.750E-04  7.23943E-11  6.07156E-15  2.16820E+02  4.00452E-09  1.0E-07
  1.000E-03  7.61544E-11  6.07156E-15  2.16820E+02  4.10720E-09  1.0E-07
  1.250E-03  1.18991E-10  6.07156E-15  2.16820E+02  5.13399E-09  1.0E-07
  1.500E-03  1.71347E-10  6.07156E-15  2.16819E+02  6.16079E-09  1.0E-07
  1.750E-03  2.33223E-10  6.07156E-15  2.16819E+02  7.18759E-09  1.0E-07
  2.000E-03  3.04617E-10  6.07156E-15  2.16819E+02  8.21439E-09  1.0E-07
  2.250E-03  3.85531E-10  6.07156E-15  2.16819E+02  9.24119E-09  1.0E-07
  2.500E-03  4.75965E-10  6.07156E-15  2.16819E+02  1.02680E-08  1.0E-07
  2.750E-03  5.75917E-10  6.07156E-15  2.16819E+02  1.12948E-08  1.0E-07
  3.000E-03  6.85389E-10  6.07156E-15  2.16819E+02  1.23216E-08  1.0E-07
  3.250E-03  8.04380E-10  6.07156E-15  2.16819E+02  1.33484E-08  1.0E-07
  3.500E-03  9.32891E-10  6.07156E-15  2.16819E+02  1.43752E-08  1.0E-07
  3.750E-03  1.07092E-09  6.07156E-15  2.16819E+02  1.54020E-08  1.0E-07
  4.000E-03  1.21847E-09  6.07156E-15  2.16819E+02  1.64288E-08  1.0E-07
  4.250E-03  1.37554E-09  6.07156E-15  2.16819E+02  1.74556E-08  1.0E-07
  4.500E-03  1.54213E-09  6.07156E-15  2.16819E+02  1.84824E-08  1.0E-07
  4.750E-03  1.71823E-09  6.07156E-15  2.16819E+02  1.95092E-08  1.0E-07
  5.000E-03  1.90386E-09  6.07156E-15  2.16819E+02  2.05360E-08  1.0E-07
  5.250E-03  2.09900E-09  6.07156E-15  2.16819E+02  2.15628E-08  1.0E-07
  5.500E-03  2.30367E-09  6.07156E-15  2.16819E+02  2.25896E-08  1.0E-07
  5.750E-03  2.51785E-09  6.07155E-15  2.16819E+02  2.36164E-08  1.0E-07
  6.000E-03  2.74156E-09  6.07155E-15  2.16819E+02  2.46432E-08  1.0E-07
  6.250E-03  2.97478E-09  6.07155E-15  2.16819E+02  2.56700E-08  1.0E-07
  6.500E-03  3.21752E-09  6.07155E-15  2.16819E+02  2.66968E-08  1.0E-07
  6.750E-03  3.46978E-09  6.07155E-15  2.16819E+02  2.77236E-08  1.0E-07
  7.000E-03  3.73156E-09  6.07155E-15  2.16819E+02  2.87504E-08  1.0E-07
  7.250E-03  4.00286E-09  6.07155E-15  2.16819E+02  2.97772E-08  1.0E-07
  7.500E-03  4.28368E-09  6.07155E-15  2.16819E+02  3.08040E-08  1.0E-07
  7.750E-03  4.57402E-09  6.07155E-15  2.16819E+02  3.18308E-08  1.0E-07
  8.000E-03  4.87388E-09  6.07155E-15  2.16819E+02  3.28576E-08  1.0E-07
  8.250E-03  5.18326E-09  6.07154E-15  2.16819E+02  3.38845E-08  1.0E-07
  8.500E-03  5.50215E-09  6.07154E-15  2.16819E+02  3.49113E-08  1.0E-07
  8.750E-03  5.83057E-09  6.07154E-15  2.16819E+02  3.59381E-08  1.0E-07
  9.000E-03  6.16850E-09  6.07154E-15  2.16819E+02  3.69649E-08  1.0E-07
  9.250E-03  6.51596E-09  6.07154E-15  2.16819E+02  3.79917E-08  1.0E-07
  9.500E-03  6.87293E-09  6.07154E-15  2.16819E+02  3.90185E-08  1.0E-07
  9.750E-03  7.23942E-09  6.07154E-15  2.16818E+02  4.00453E-08  1.0E-07
  1.000E-02  7.61544E-09  6.07153E-15  2.16818E+02  4.10721E-08  1.0E-07
  1.250E-02  1.18991E-08  6.07152E-15  2.16818E+02  5.13403E-08  1.0E-07
  1.500E-02  1.71347E-08  6.07150E-15  2.16817E+02  6.16085E-08  1.0E-07
  1.750E-02  2.33223E-08  6.07147E-15  2.16816E+02  7.18768E-08  1.0E-07
  2.000E-02  3.04617E-08  6.07144E-15  2.16815E+02  8.21452E-08  1.0E-07
  2.250E-02  3.85531E-08  6.07141E-15  2.16814E+02  9.24138E-08  1.0E-07
  2.500E-02  4.75965E-08  6.07138E-15  2.16813E+02  1.02682E-07  1.0E-07
  2.750E-02  5.75917E-08  6.07134E-15  2.16811E+02  1.12951E-07  1.0E-07
  3.000E-02  6.85389E-08  6.07129E-15  2.16810E+02  1.23220E-07  1.0E-07
  3.250E-02  8.04380E-08  6.07125E-15  2.16808E+02  1.33490E-07  1.0E-07
  3.500E-02  9.32891E-08  6.07120E-15  2.16806E+02  1.43759E-07  1.0E-07
  3.750E-02  1.07092E-07  6.07114E-15  2.16804E+02  1.54029E-07  1.0E-07
  4.000E-02  1.21847E-07  6.07108E-15  2.16802E+02  1.64298E-07  1.0E-07
  4.250E-02  1.37554E-07  6.07102E-15  2.16800E+02  1.74569E-07  1.0E-07
  4.500E-02  1.54213E-07  6.07095E-15  2.16798E+02  1.84839E-07  1.0E-07
  4.750E-02  1.71823E-07  6.07088E-15  2.16795E+02  1.95110E-07  1.0E-07
  5.000E-02  1.90386E-07  6.07081E-15  2.16793E+02  2.05381E-07  1.0E-07
  5.250E-02  2.09900E-07  6.07073E-15  2.16790E+02  2.15652E-07  1.0E-07
  5.500E-02  2.30367E-07  6.07065E-15  2.16787E+02  2.25924E-07  1.0E-07
  5.750E-02  2.51785E-07  6.07057E-15  2.16784E+02  2.36195E-07  1.0E-07
  6.000E-02  2.74156E-07  6.07048E-15  2.16781E+02  2.46468E-07  1.0E-07
  6.250E-02  2.97478E-07  6.07039E-15  2.16777E+02  2.56740E-07  1.0E-07
  6.500E-02  3.21752E-07  6.07029E-15  2.16774E+02  2.67014E-07  1.0E-07
  6.750E-02  3.46978E-07  6.07019E-15  2.16770E+02  2.77287E-07  1.0E-07
  7.000E-02  3.73156E-07  6.07009E-15  2.16767E+02  2.87561E-07  1.0E-07
  7.250E-02  4.00286E-07  6.06998E-15  2.16763E+02  2.97835E-07  1.0E-07
  7.500E-02  4.28368E-07  6.06987E-15  2.16759E+02  3.08110E-07  1.0E-07
  7.750E-02  4.57402E-07  6.06976E-15  2.16755E+02  3.18385E-07  1.0E-07
  8.000E-02  4.87388E-07  6.06964E-15  2.16751E+02  3.28661E-07  1.0E-07
  8.250E-02  5.18325E-07  6.06951E-15  2.16746E+02  3.38937E-07  1.0E-07
  8.500E-02  5.50215E-07  6.06939E-15  2.16742E+02  3.49214E-07  1.0E-07
  8.750E-02  5.83057E-07  6.06926E-15  2.16737E+02  3.59491E-07  1.0E-07
  9.000E-02  6.16850E-07  6.06912E-15  2.16732E+02  3.69769E-07  1.0E-07
  9.250E-02  6.51596E-07  6.06899E-15  2.16727E+02  3.80048E-07  1.0E-07
  9.500E-02  6.87293E-07  6.06885E-15  2.16722E+02  3.90327E-07  1.0E-07
  9.750E-02  7.23942E-07  6.06870E-15  2.16717E+02  4.00606E-07  1.0E-07
  1.000E-01  7.61543E-07  6.06855E-15  2.16712E+02  4.10886E-07  1.0E-07
  1.250E-01  1.18991E-06  6.06686E-15  2.16652E+02  5.13725E-07  1.0E-07
  1.500E-01  1.71347E-06  6.06480E-15  2.16578E+02  6.16642E-07  1.0E-07
  1.750E-01  2.33223E-06  6.06236E-15  2.16491E+02  7.19653E-07  1.0E-07
  2.000E-01  3.04617E-06  6.05955E-15  2.16390E+02  8.22772E-07  1.0E-07
  2.250E-01  3.85531E-06  6.05637E-15  2.16277E+02  9.26016E-07  1.0E-07
  2.500E-01  4.75964E-06  6.05283E-15  2.16150E+02  1.02940E-06  1.0E-07
  2.750E-01  5.75916E-06  6.04892E-15  2.16011E+02  1.13294E-06  1.0E-07
  3.000E-01  6.85388E-06  6.04465E-15  2.15858E+02  1.23665E-06  1.0E-07
  3.250E-01  8.04378E-06  6.04002E-15  2.15693E+02  1.34054E-06  1.0E-07
  3.500E-01  9.32888E-06  6.03503E-15  2.15515E+02  1.44464E-06  1.0E-07
  3.750E-01  1.07092E-05  6.02969E-15  2.15324E+02  1.54895E-06  1.0E-07
  4.000E-01  1.21846E-05  6.02401E-15  2.15121E+02  1.65349E-06  1.0E-07
  4.250E-01  1.37553E-05  6.01797E-15  2.14906E+02  1.75828E-06  1.0E-07
  4.500E-01  1.54212E-05  6.01160E-15  2.14678E+02  1.86332E-06  1.0E-07
  4.750E-01  1.71822E-05  6.00488E-15  2.14438E+02  1.96864E-06  1.0E-07
  5.000E-01  1.90385E-05  5.99784E-15  2.14187E+02  2.07425E-06  1.0E-07
  5.250E-01  2.09899E-05  5.99046E-15  2.13923E+02  2.18016E-06  1.0E-07
  5.500E-01  2.30365E-05  5.98276E-15  2.13648E+02  2.28638E-06  1.0E-07
  5.750E-01  2.51783E-05  5.97474E-15  2.13362E+02  2.39294E-06  1.0E-07
  6.000E-01  2.74153E-05  5.96641E-15  2.13064E+02  2.49984E-06  1.0E-07
  6.250E-01  2.97475E-05  5.95777E-15  2.12756E+02  2.60709E-06  1.0E-07
  6.500E-01  3.21749E-05  5.94882E-15  2.12436E+02  2.71472E-06  1.0E-07
  6.750E-01  3.46974E-05  5.93957E-15  2.12106E+02  2.82273E-06  1.0E-07
  7.000E-01  3.73152E-05  5.93004E-15  2.11765E+02  2.93113E-06  1.0E-07
  7.250E-01  4.00281E-05  5.92021E-15  2.11415E+02  3.03995E-06  1.0E-07
  7.500E-01  4.28362E-05  5.91010E-15  2.11054E+02  3.14919E-06  1.0E-07
  7.750E-01  4.57395E-05  5.89972E-15  2.10683E+02  3.25886E-06  1.0E-07
  8.000E-01  4.87380E-05  5.88907E-15  2.10303E+02  3.36897E-06  1.0E-07
  8.250E-01  5.18317E-05  5.87816E-15  2.09913E+02  3.47955E-06  1.0E-07
  8.500E-01  5.50205E-05  5.86699E-15  2.09514E+02  3.59059E-06  1.0E-07
  8.750E-01  5.83045E-05  5.85557E-15  2.09106E+02  3.70211E-06  1.0E-07
  9.000E-01  6.16838E-05  5.84390E-15  2.08690E+02  3.81412E-06  1.0E-07
  9.250E-01  6.51582E-05  5.83200E-15  2.08265E+02  3.92664E-06  1.0E-07
  9.500E-01  6.87277E-05  5.81987E-15  2.07831E+02  4.03967E-06  1.0E-07
  9.750E-01  7.23925E-05  5.80752E-15  2.07390E+02  4.15322E-06  1.0E-07
  1.000E+00  7.61524E-05  5.79494E-15  2.06941E+02  4.26730E-06  1.0E-07
  1.100E+00  9.21439E-05  5.74262E-15  2.05073E+02  4.72916E-06  1.0E-07
  1.200E+00  1.09658E-04  5.68738E-15  2.03100E+02  5.20027E-06  1.0E-07
  1.300E+00  1.28695E-04  5.62966E-15  2.01039E+02  5.68114E-06  1.0E-07
  1.400E+00  1.49255E-04  5.56990E-15  1.98905E+02  6.17220E-06  1.0E-07
  1.500E+00  1.71338E-04  5.50851E-15  1.96712E+02  6.67378E-06  1.0E-07
  1.600E+00  1.94942E-04  5.44591E-15  1.94477E+02  7.18618E-06  1.0E-07
  1.700E+00  2.20070E-04  5.38246E-15  1.92211E+02  7.70958E-06  1.0E-07
  1.800E+00  2.46720E-04  5.31853E-15  1.89928E+02  8.24412E-06  1.0E-07
  1.900E+00  2.74892E-04  5.25443E-15  1.87639E+02  8.78986E-06  1.0E-07
  2.000E+00  3.04586E-04  5.19045E-15  1.85354E+02  9.34681E-06  1.0E-07
  2.100E+00  3.35803E-04  5.12684E-15  1.83083E+02  9.91492E-06  1.0E-07
  2.200E+00  3.68542E-04  5.06381E-15  1.80832E+02  1.04941E-05  1.0E-07
  2.300E+00  4.02802E-04  5.00153E-15  1.78608E+02  1.10843E-05  1.0E-07
  2.400E+00  4.38585E-04  4.94015E-15  1.76416E+02  1.16852E-05  1.0E-07
  2.500E+00  4.75889E-04  4.87977E-15  1.74260E+02  1.22969E-05  1.0E-07
  2.600E+00  5.14715E-04  4.82048E-15  1.72142E+02  1.29191E-05  1.0E-07
  2.700E+00  5.55063E-04  4.76230E-15  1.70065E+02  1.35517E-05  1.0E-07
  2.800E+00  5.96931E-04  4.70527E-15  1.68028E+02  1.41947E-05  1.0E-07
  2.900E+00  6.40321E-04  4.64939E-15  1.66033E+02  1.48478E-05  1.0E-07
  3.000E+00  6.85233E-04  4.59462E-15  1.64077E+02  1.55112E-05  1.0E-07
  3.100E+00  7.31665E-04  4.54092E-15  1.62159E+02  1.61847E-05  1.0E-07
  3.200E+00  7.79618E-04  4.48826E-15  1.60279E+02  1.68684E-05  1.0E-07
  3.300E+00  8.29092E-04  4.43656E-15  1.58432E+02  1.75624E-05  1.0E-07
  3.400E+00  8.80086E-04  4.38576E-15  1.56618E+02  1.82668E-05  1.0E-07
  3.500E+00  9.32601E-04  4.33578E-15  1.54833E+02  1.89819E-05  1.0E-07
  3.600E+00  9.86636E-04  4.28656E-15  1.53076E+02  1.97077E-05  1.0E-07
  3.700E+00  1.04219E-03  4.23802E-15  1.51342E+02  2.04446E-05  1.0E-07
  3.800E+00  1.09927E-03  4.19010E-15  1.49631E+02  2.11927E-05  1.0E-07
  3.900E+00  1.15786E-03  4.14275E-15  1.47940E+02  2.19525E-05  1.0E-07
  4.000E+00  1.21797E-03  4.09590E-15  1.46267E+02  2.27242E-05  1.0E-07
  4.100E+00  1.27961E-03  4.04951E-15  1.44611E+02  2.35081E-05  1.0E-07
  4.200E+00  1.34276E-03  4.00355E-15  1.42969E+02  2.43044E-05  1.0E-07
  4.300E+00  1.40743E-03  3.95799E-15  1.41342E+02  2.51136E-05  1.0E-07
  4.400E+00  1.47362E-03  3.91280E-15  1.39729E+02  2.59359E-05  1.0E-07
  4.500E+00  1.54133E-03  3.86798E-15  1.38128E+02  2.67715E-05  1.0E-07
  4.600E+00  1.61056E-03  3.82352E-15  1.36540E+02  2.76207E-05  1.0E-07
  4.700E+00  1.68131E-03  3.77943E-15  1.34966E+02  2.84837E-05  1.0E-07
  4.800E+00  1.75357E-03  3.73571E-15  1.33405E+02  2.93605E-05  1.0E-07
  4.900E+00  1.82735E-03  3.69237E-15  1.31857E+02  3.02515E-05  1.0E-07
  5.000E+00  1.90265E-03  3.64944E-15  1.30324E+02  3.11566E-05  1.0E-07
  5.100E+00  1.97947E-03  3.60692E-15  1.28806E+02  3.20759E-05  1.0E-07
  5.200E+00  2.05780E-03  3.56485E-15  1.27303E+02  3.30095E-05  1.0E-07
  5.300E+00  2.13765E-03  3.52323E-15  1.25817E+02  3.39573E-05  1.0E-07
  5.400E+00  2.21902E-03  3.48208E-15  1.24347E+02  3.49195E-05  1.0E-07
  5.500E+00  2.30190E-03  3.44142E-15  1.22896E+02  3.58958E-05  1.0E-07
  5.600E+00  2.38630E-03  3.40127E-15  1.21462E+02  3.68864E-05  1.0E-07
  5.700E+00  2.47222E-03  3.36164E-15  1.20046E+02  3.78912E-05  1.0E-07
  5.800E+00  2.55965E-03  3.32252E-15  1.18649E+02  3.89101E-05  1.0E-07
  5.900E+00  2.64859E-03  3.28393E-15  1.17271E+02  3.99433E-05  1.0E-07
  6.000E+00  2.73905E-03  3.24587E-15  1.15912E+02  4.09906E-05  1.0E-07
  6.100E+00  2.83103E-03  3.20832E-15  1.14571E+02  4.20521E-05  1.0E-07
  6.200E+00  2.92452E-03  3.17129E-15  1.13249E+02  4.31279E-05  1.0E-07
  6.300E+00  3.01952E-03  3.13477E-15  1.11945E+02  4.42180E-05  1.0E-07
  6.400E+00  3.11604E-03  3.09873E-15  1.10658E+02  4.53227E-05  1.0E-07
  6.500E+00  3.21407E-03  3.06317E-15  1.09388E+02  4.64420E-05  1.0E-07
  6.600E+00  3.31362E-03  3.02807E-15  1.08134E+02  4.75761E-05  1.0E-07
  6.700E+00  3.41468E-03  2.99342E-15  1.06897E+02  4.87253E-05  1.0E-07
  6.800E+00  3.51725E-03  2.95919E-15  1.05675E+02  4.98897E-05  1.0E-07
  6.900E+00  3.62133E-03  2.92537E-15  1.04467E+02  5.10697E-05  1.0E-07
  7.000E+00  3.72692E-03  2.89194E-15  1.03273E+02  5.22656E-05  1.0E-07
  7.100E+00  3.83403E-03  2.85888E-15  1.02093E+02  5.34775E-05  1.0E-07
  7.200E+00  3.94265E-03  2.82619E-15  1.00925E+02  5.47058E-05  1.0E-07
  7.300E+00  4.05278E-03  2.79385E-15  9.97701E+01  5.59508E-05  1.0E-07
  7.400E+00  4.16442E-03  2.76184E-15  9.86272E+01  5.72128E-05  1.0E-07
  7.500E+00  4.27757E-03  2.73017E-15  9.74960E+01  5.84919E-05  1.0E-07
  7.600E+00  4.39223E-03  2.69881E-15  9.63763E+01  5.97886E-05  1.0E-07
  7.700E+00  4.50840E-03  2.66778E-15  9.52680E+01  6.11029E-05  1.0E-07
  7.800E+00  4.62608E-03  2.63705E-15  9.41709E+01  6.24351E-05  1.0E-07
  7.900E+00  4.74527E-03  2.60665E-15  9.30851E+01  6.37854E-05  1.0E-07
  8.000E+00  4.86597E-03  2.57655E-15  9.20104E+01  6.51538E-05  1.0E-07
  8.100E+00  4.98817E-03  2.54678E-15  9.09470E+01  6.65406E-05  1.0E-07
  8.200E+00  5.11188E-03  2.51731E-15  8.98949E+01  6.79457E-05  1.0E-07
  8.300E+00  5.23711E-03  2.48817E-15  8.88543E+01  6.93692E-05  1.0E-07
  8.400E+00  5.36383E-03  2.45936E-15  8.78252E+01  7.08113E-05  1.0E-07
  8.500E+00  5.49207E-03  2.43086E-15  8.68078E+01  7.22718E-05  1.0E-07
  8.600E+00  5.62181E-03  2.40270E-15  8.58021E+01  7.37508E-05  1.0E-07
  8.700E+00  5.75306E-03  2.37487E-15  8.48082E+01  7.52483E-05  1.0E-07
  8.800E+00  5.88581E-03  2.34737E-15  8.38262E+01  7.67644E-05  1.0E-07
  8.900E+00  6.02007E-03  2.32021E-15  8.28562E+01  7.82989E-05  1.0E-07
  9.000E+00  6.15583E-03  2.29338E-15  8.18979E+01  7.98520E-05  1.0E-07
  9.100E+00  6.29310E-03  2.26687E-15  8.09516E+01  8.14237E-05  1.0E-07
  9.200E+00  6.43187E-03  2.24070E-15  8.00169E+01  8.30141E-05  1.0E-07
  9.300E+00  6.57214E-03  2.21485E-15  7.90939E+01  8.46231E-05  1.0E-07
  9.400E+00  6.71392E-03  2.18933E-15  7.81822E+01  8.62510E-05  1.0E-07
  9.500E+00  6.85720E-03  2.16411E-15  7.72819E+01  8.78979E-05  1.0E-07
  9.600E+00  7.00198E-03  2.13921E-15  7.63925E+01  8.95639E-05  1.0E-07
  9.700E+00  7.14827E-03  2.11460E-15  7.55139E+01  9.12493E-05  1.0E-07
  9.800E+00  7.29605E-03  2.09029E-15  7.46458E+01  9.29542E-05  1.0E-07
  9.900E+00  7.44534E-03  2.06627E-15  7.37879E+01  9.46789E-05  1.0E-07
  1.000E+01  7.59612E-03  2.04253E-15  7.29400E+01  9.64237E-05  1.0E-07
  1.025E+01  7.97965E-03  1.98435E-15  7.08623E+01  1.00875E-04  1.0E-07
  1.050E+01  8.37255E-03  1.92777E-15  6.88417E+01  1.05458E-04  1.0E-07
  1.075E+01  8.77480E-03  1.87270E-15  6.68754E+01  1.10176E-04  1.0E-07
  1.100E+01  9.18641E-03  1.81910E-15  6.49614E+01  1.15033E-04  1.0E-07
  1.125E+01  9.60736E-03  1.76694E-15  6.30986E+01  1.20031E-04  1.0E-07
  1.150E+01  1.00376E-02  1.71621E-15  6.12869E+01  1.25172E-04  1.0E-07
  1.175E+01  1.04773E-02  1.66690E-15  5.95260E+01  1.30456E-04  1.0E-07
  1.200E+01  1.09262E-02  1.61901E-15  5.78158E+01  1.35882E-04  1.0E-07
  1.225E+01  1.13844E-02  1.57252E-15  5.61559E+01  1.41452E-04  1.0E-07
  1.250E+01  1.18520E-02  1.52742E-15  5.45450E+01  1.47166E-04  1.0E-07
  1.275E+01  1.23288E-02  1.48364E-15  5.29818E+01  1.53026E-04  1.0E-07
  1.300E+01  1.28150E-02  1.44115E-15  5.14643E+01  1.59034E-04  1.0E-07
  1.325E+01  1.33104E-02  1.39987E-15  4.99903E+01  1.65193E-04  1.0E-07
  1.350E+01  1.38150E-02  1.35976E-15  4.85579E+01  1.71507E-04  1.0E-07
  1.375E+01  1.43290E-02  1.32076E-15  4.71654E+01  1.77979E-04  1.0E-07
  1.400E+01  1.48521E-02  1.28285E-15  4.58112E+01  1.84611E-04  1.0E-07
