 #
 # Subroutine ELSEPA. Elastic scattering of electrons and positrons
 #                    by neutral atoms and positive ions
 #
 # Projectile: electron
 # Kinetic energy = 8.00000E+01 eV = 2.93995E+00 a.u.
 #
 #  ***  WARNING: Energy is too low.
 #                The reliability of the results is questionable.
 #
 # Element: Si,  Z =  14,  atomic weight = 2.80855E+01 g/mol
 #
 # Nuclear model: Fermi distribution
 #                Average radius = 3.25245E-13 cm
 #                Skin thickness = 5.46000E-14 cm
 #
 # Number of electrons = 14
 #
 # Electron density: analytical TFD model
 #                   A1 =  5.06491D-02 ,   ALPHA1 = 2.52626D+01
 #                   A2 =  4.01742D-01 ,   ALPHA2 = 4.82409D+00
 #                   A3 =  5.47609D-01 ,   ALPHA3 = 1.41708D+00
 #                   Volume integral = 1.40000E+01
 #
 # Furness-McCarthy exchange potential
 #
 # Correlation-polarization potential (Buckingham):
 #                           Alpha = 5.38000E-24 cm**3
 #                            Bpol = 1.36931E+00
 #
 # Total elastic cross section = 9.93894E-16 cm**2 = 3.54926E+01 a0**2
 # 1st transport cross section = 3.57470E-16 cm**2 = 1.27655E+01 a0**2
 # 2nd transport cross section = 3.14841E-16 cm**2 = 1.12432E+01 a0**2
 #
 #
 # Differential cross section:                       MU=(1-COS(THETA))/2
 #
 #  THETA        MU          DCS          DCS        Sherman      error
 #  (deg)                 (cm**2/sr)   (a0**2/sr)    function
 #----------------------------------------------------------------------
  0.000E+00  0.00000E+00  6.27466E-15  2.24072E+02  0.00000E+00  1.0E-07
  1.000E-04  7.61557E-13  6.27466E-15  2.24072E+02  5.47652E-10  1.0E-07
  1.250E-04  1.18994E-12  6.27466E-15  2.24072E+02  6.84565E-10  1.0E-07
  1.500E-04  1.71346E-12  6.27466E-15  2.24072E+02  8.21478E-10  1.0E-07
  1.750E-04  2.33225E-12  6.27466E-15  2.24072E+02  9.58391E-10  1.0E-07
  2.000E-04  3.04617E-12  6.27466E-15  2.24072E+02  1.09530E-09  1.0E-07
  2.250E-04  3.85530E-12  6.27466E-15  2.24072E+02  1.23222E-09  1.0E-07
  2.500E-04  4.75964E-12  6.27466E-15  2.24072E+02  1.36913E-09  1.0E-07
  2.750E-04  5.75917E-12  6.27466E-15  2.24072E+02  1.50604E-09  1.0E-07
  3.000E-04  6.85391E-12  6.27466E-15  2.24072E+02  1.64296E-09  1.0E-07
  3.250E-04  8.04379E-12  6.27466E-15  2.24072E+02  1.77987E-09  1.0E-07
  3.500E-04  9.32893E-12  6.27466E-15  2.24072E+02  1.91678E-09  1.0E-07
  3.750E-04  1.07092E-11  6.27466E-15  2.24072E+02  2.05370E-09  1.0E-07
  4.000E-04  1.21847E-11  6.27466E-15  2.24072E+02  2.19061E-09  1.0E-07
  4.250E-04  1.37554E-11  6.27466E-15  2.24072E+02  2.32752E-09  1.0E-07
  4.500E-04  1.54213E-11  6.27466E-15  2.24072E+02  2.46443E-09  1.0E-07
  4.750E-04  1.71823E-11  6.27466E-15  2.24072E+02  2.60135E-09  1.0E-07
  5.000E-04  1.90386E-11  6.27466E-15  2.24072E+02  2.73826E-09  1.0E-07
  5.250E-04  2.09900E-11  6.27466E-15  2.24072E+02  2.87517E-09  1.0E-07
  5.500E-04  2.30367E-11  6.27466E-15  2.24072E+02  3.01209E-09  1.0E-07
  5.750E-04  2.51785E-11  6.27466E-15  2.24072E+02  3.14900E-09  1.0E-07
  6.000E-04  2.74156E-11  6.27466E-15  2.24072E+02  3.28591E-09  1.0E-07
  6.250E-04  2.97478E-11  6.27466E-15  2.24072E+02  3.42283E-09  1.0E-07
  6.500E-04  3.21752E-11  6.27466E-15  2.24072E+02  3.55974E-09  1.0E-07
  6.750E-04  3.46979E-11  6.27466E-15  2.24072E+02  3.69665E-09  1.0E-07
  7.000E-04  3.73157E-11  6.27466E-15  2.24072E+02  3.83357E-09  1.0E-07
  7.250E-04  4.00286E-11  6.27466E-15  2.24072E+02  3.97048E-09  1.0E-07
  7.500E-04  4.28368E-11  6.27466E-15  2.24072E+02  4.10739E-09  1.0E-07
  7.750E-04  4.57402E-11  6.27466E-15  2.24072E+02  4.24430E-09  1.0E-07
  8.000E-04  4.87388E-11  6.27466E-15  2.24072E+02  4.38122E-09  1.0E-07
  8.250E-04  5.18325E-11  6.27466E-15  2.24072E+02  4.51813E-09  1.0E-07
  8.500E-04  5.50215E-11  6.27466E-15  2.24072E+02  4.65504E-09  1.0E-07
  8.750E-04  5.83057E-11  6.27466E-15  2.24072E+02  4.79196E-09  1.0E-07
  9.000E-04  6.16850E-11  6.27466E-15  2.24072E+02  4.92887E-09  1.0E-07
  9.250E-04  6.51595E-11  6.27466E-15  2.24072E+02  5.06578E-09  1.0E-07
  9.500E-04  6.87293E-11  6.27466E-15  2.24072E+02  5.20270E-09  1.0E-07
  9.750E-04  7.23943E-11  6.27466E-15  2.24072E+02  5.33961E-09  1.0E-07
  1.000E-03  7.61544E-11  6.27466E-15  2.24072E+02  5.47652E-09  1.0E-07
  1.250E-03  1.18991E-10  6.27466E-15  2.24072E+02  6.84565E-09  1.0E-07
  1.500E-03  1.71347E-10  6.27465E-15  2.24072E+02  8.21478E-09  1.0E-07
  1.750E-03  2.33223E-10  6.27465E-15  2.24072E+02  9.58391E-09  1.0E-07
  2.000E-03  3.04617E-10  6.27465E-15  2.24072E+02  1.09530E-08  1.0E-07
  2.250E-03  3.85531E-10  6.27465E-15  2.24072E+02  1.23222E-08  1.0E-07
  2.500E-03  4.75965E-10  6.27465E-15  2.24072E+02  1.36913E-08  1.0E-07
  2.750E-03  5.75917E-10  6.27465E-15  2.24072E+02  1.50604E-08  1.0E-07
  3.000E-03  6.85389E-10  6.27465E-15  2.24072E+02  1.64296E-08  1.0E-07
  3.250E-03  8.04380E-10  6.27465E-15  2.24072E+02  1.77987E-08  1.0E-07
  3.500E-03  9.32891E-10  6.27465E-15  2.24072E+02  1.91678E-08  1.0E-07
  3.750E-03  1.07092E-09  6.27465E-15  2.24072E+02  2.05370E-08  1.0E-07
  4.000E-03  1.21847E-09  6.27465E-15  2.24072E+02  2.19061E-08  1.0E-07
  4.250E-03  1.37554E-09  6.27465E-15  2.24072E+02  2.32752E-08  1.0E-07
  4.500E-03  1.54213E-09  6.27465E-15  2.24072E+02  2.46444E-08  1.0E-07
  4.750E-03  1.71823E-09  6.27465E-15  2.24072E+02  2.60135E-08  1.0E-07
  5.000E-03  1.90386E-09  6.27465E-15  2.24072E+02  2.73826E-08  1.0E-07
  5.250E-03  2.09900E-09  6.27464E-15  2.24072E+02  2.87518E-08  1.0E-07
  5.500E-03  2.30367E-09  6.27464E-15  2.24072E+02  3.01209E-08  1.0E-07
  5.750E-03  2.51785E-09  6.27464E-15  2.24072E+02  3.14900E-08  1.0E-07
  6.000E-03  2.74156E-09  6.27464E-15  2.24071E+02  3.28592E-08  1.0E-07
  6.250E-03  2.97478E-09  6.27464E-15  2.24071E+02  3.42283E-08  1.0E-07
  6.500E-03  3.21752E-09  6.27464E-15  2.24071E+02  3.55974E-08  1.0E-07
  6.750E-03  3.46978E-09  6.27464E-15  2.24071E+02  3.69666E-08  1.0E-07
  7.000E-03  3.73156E-09  6.27464E-15  2.24071E+02  3.83357E-08  1.0E-07
  7.250E-03  4.00286E-09  6.27463E-15  2.24071E+02  3.97048E-08  1.0E-07
  7.500E-03  4.28368E-09  6.27463E-15  2.24071E+02  4.10740E-08  1.0E-07
  7.750E-03  4.57402E-09  6.27463E-15  2.24071E+02  4.24431E-08  1.0E-07
  8.000E-03  4.87388E-09  6.27463E-15  2.24071E+02  4.38123E-08  1.0E-07
  8.250E-03  5.18326E-09  6.27463E-15  2.24071E+02  4.51814E-08  1.0E-07
  8.500E-03  5.50215E-09  6.27463E-15  2.24071E+02  4.65505E-08  1.0E-07
  8.750E-03  5.83057E-09  6.27462E-15  2.24071E+02  4.79197E-08  1.0E-07
  9.000E-03  6.16850E-09  6.27462E-15  2.24071E+02  4.92888E-08  1.0E-07
  9.250E-03  6.51596E-09  6.27462E-15  2.24071E+02  5.06580E-08  1.0E-07
  9.500E-03  6.87293E-09  6.27462E-15  2.24071E+02  5.20271E-08  1.0E-07
  9.750E-03  7.23942E-09  6.27462E-15  2.24071E+02  5.33962E-08  1.0E-07
  1.000E-02  7.61544E-09  6.27461E-15  2.24071E+02  5.47654E-08  1.0E-07
  1.250E-02  1.18991E-08  6.27459E-15  2.24070E+02  6.84568E-08  1.0E-07
  1.500E-02  1.71347E-08  6.27456E-15  2.24069E+02  8.21484E-08  1.0E-07
  1.750E-02  2.33223E-08  6.27453E-15  2.24067E+02  9.58400E-08  1.0E-07
  2.000E-02  3.04617E-08  6.27449E-15  2.24066E+02  1.09532E-07  1.0E-07
  2.250E-02  3.85531E-08  6.27444E-15  2.24064E+02  1.23224E-07  1.0E-07
  2.500E-02  4.75965E-08  6.27439E-15  2.24063E+02  1.36916E-07  1.0E-07
  2.750E-02  5.75917E-08  6.27434E-15  2.24061E+02  1.50608E-07  1.0E-07
  3.000E-02  6.85389E-08  6.27428E-15  2.24059E+02  1.64300E-07  1.0E-07
  3.250E-02  8.04380E-08  6.27421E-15  2.24056E+02  1.77993E-07  1.0E-07
  3.500E-02  9.32891E-08  6.27414E-15  2.24054E+02  1.91685E-07  1.0E-07
  3.750E-02  1.07092E-07  6.27407E-15  2.24051E+02  2.05378E-07  1.0E-07
  4.000E-02  1.21847E-07  6.27398E-15  2.24048E+02  2.19071E-07  1.0E-07
  4.250E-02  1.37554E-07  6.27390E-15  2.24045E+02  2.32765E-07  1.0E-07
  4.500E-02  1.54213E-07  6.27381E-15  2.24042E+02  2.46458E-07  1.0E-07
  4.750E-02  1.71823E-07  6.27371E-15  2.24038E+02  2.60152E-07  1.0E-07
  5.000E-02  1.90386E-07  6.27361E-15  2.24035E+02  2.73847E-07  1.0E-07
  5.250E-02  2.09900E-07  6.27350E-15  2.24031E+02  2.87541E-07  1.0E-07
  5.500E-02  2.30367E-07  6.27339E-15  2.24027E+02  3.01236E-07  1.0E-07
  5.750E-02  2.51785E-07  6.27327E-15  2.24022E+02  3.14931E-07  1.0E-07
  6.000E-02  2.74156E-07  6.27314E-15  2.24018E+02  3.28627E-07  1.0E-07
  6.250E-02  2.97478E-07  6.27302E-15  2.24013E+02  3.42323E-07  1.0E-07
  6.500E-02  3.21752E-07  6.27288E-15  2.24009E+02  3.56019E-07  1.0E-07
  6.750E-02  3.46978E-07  6.27274E-15  2.24004E+02  3.69716E-07  1.0E-07
  7.000E-02  3.73156E-07  6.27260E-15  2.23999E+02  3.83413E-07  1.0E-07
  7.250E-02  4.00286E-07  6.27245E-15  2.23993E+02  3.97110E-07  1.0E-07
  7.500E-02  4.28368E-07  6.27229E-15  2.23988E+02  4.10808E-07  1.0E-07
  7.750E-02  4.57402E-07  6.27214E-15  2.23982E+02  4.24507E-07  1.0E-07
  8.000E-02  4.87388E-07  6.27197E-15  2.23976E+02  4.38206E-07  1.0E-07
  8.250E-02  5.18325E-07  6.27180E-15  2.23970E+02  4.51905E-07  1.0E-07
  8.500E-02  5.50215E-07  6.27162E-15  2.23964E+02  4.65605E-07  1.0E-07
  8.750E-02  5.83057E-07  6.27144E-15  2.23957E+02  4.79305E-07  1.0E-07
  9.000E-02  6.16850E-07  6.27126E-15  2.23951E+02  4.93006E-07  1.0E-07
  9.250E-02  6.51596E-07  6.27107E-15  2.23944E+02  5.06708E-07  1.0E-07
  9.500E-02  6.87293E-07  6.27087E-15  2.23937E+02  5.20410E-07  1.0E-07
  9.750E-02  7.23942E-07  6.27067E-15  2.23930E+02  5.34113E-07  1.0E-07
  1.000E-01  7.61543E-07  6.27046E-15  2.23922E+02  5.47816E-07  1.0E-07
  1.250E-01  1.18991E-06  6.26811E-15  2.23838E+02  6.84885E-07  1.0E-07
  1.500E-01  1.71347E-06  6.26523E-15  2.23735E+02  8.22030E-07  1.0E-07
  1.750E-01  2.33223E-06  6.26184E-15  2.23614E+02  9.59267E-07  1.0E-07
  2.000E-01  3.04617E-06  6.25794E-15  2.23475E+02  1.09661E-06  1.0E-07
  2.250E-01  3.85531E-06  6.25352E-15  2.23317E+02  1.23408E-06  1.0E-07
  2.500E-01  4.75964E-06  6.24860E-15  2.23142E+02  1.37168E-06  1.0E-07
  2.750E-01  5.75916E-06  6.24318E-15  2.22948E+02  1.50943E-06  1.0E-07
  3.000E-01  6.85388E-06  6.23726E-15  2.22736E+02  1.64735E-06  1.0E-07
  3.250E-01  8.04378E-06  6.23084E-15  2.22507E+02  1.78545E-06  1.0E-07
  3.500E-01  9.32888E-06  6.22394E-15  2.22261E+02  1.92375E-06  1.0E-07
  3.750E-01  1.07092E-05  6.21656E-15  2.21997E+02  2.06225E-06  1.0E-07
  4.000E-01  1.21846E-05  6.20871E-15  2.21717E+02  2.20098E-06  1.0E-07
  4.250E-01  1.37553E-05  6.20039E-15  2.21420E+02  2.33994E-06  1.0E-07
  4.500E-01  1.54212E-05  6.19160E-15  2.21106E+02  2.47915E-06  1.0E-07
  4.750E-01  1.71822E-05  6.18237E-15  2.20776E+02  2.61863E-06  1.0E-07
  5.000E-01  1.90385E-05  6.17268E-15  2.20431E+02  2.75838E-06  1.0E-07
  5.250E-01  2.09899E-05  6.16257E-15  2.20069E+02  2.89843E-06  1.0E-07
  5.500E-01  2.30365E-05  6.15202E-15  2.19693E+02  3.03877E-06  1.0E-07
  5.750E-01  2.51783E-05  6.14105E-15  2.19301E+02  3.17943E-06  1.0E-07
  6.000E-01  2.74153E-05  6.12967E-15  2.18894E+02  3.32042E-06  1.0E-07
  6.250E-01  2.97475E-05  6.11788E-15  2.18474E+02  3.46174E-06  1.0E-07
  6.500E-01  3.21749E-05  6.10571E-15  2.18039E+02  3.60342E-06  1.0E-07
  6.750E-01  3.46974E-05  6.09315E-15  2.17590E+02  3.74545E-06  1.0E-07
  7.000E-01  3.73152E-05  6.08022E-15  2.17128E+02  3.88786E-06  1.0E-07
  7.250E-01  4.00281E-05  6.06692E-15  2.16654E+02  4.03065E-06  1.0E-07
  7.500E-01  4.28362E-05  6.05327E-15  2.16166E+02  4.17384E-06  1.0E-07
  7.750E-01  4.57395E-05  6.03928E-15  2.15667E+02  4.31742E-06  1.0E-07
  8.000E-01  4.87380E-05  6.02496E-15  2.15155E+02  4.46142E-06  1.0E-07
  8.250E-01  5.18317E-05  6.01031E-15  2.14632E+02  4.60585E-06  1.0E-07
  8.500E-01  5.50205E-05  5.99536E-15  2.14098E+02  4.75070E-06  1.0E-07
  8.750E-01  5.83045E-05  5.98010E-15  2.13553E+02  4.89599E-06  1.0E-07
  9.000E-01  6.16838E-05  5.96456E-15  2.12998E+02  5.04174E-06  1.0E-07
  9.250E-01  6.51582E-05  5.94873E-15  2.12433E+02  5.18793E-06  1.0E-07
  9.500E-01  6.87277E-05  5.93265E-15  2.11859E+02  5.33460E-06  1.0E-07
  9.750E-01  7.23925E-05  5.91630E-15  2.11275E+02  5.48173E-06  1.0E-07
  1.000E+00  7.61524E-05  5.89972E-15  2.10683E+02  5.62934E-06  1.0E-07
  1.100E+00  9.21439E-05  5.83115E-15  2.08234E+02  6.22468E-06  1.0E-07
  1.200E+00  1.09658E-04  5.75956E-15  2.05677E+02  6.82813E-06  1.0E-07
  1.300E+00  1.28695E-04  5.68563E-15  2.03038E+02  7.43994E-06  1.0E-07
  1.400E+00  1.49255E-04  5.61003E-15  2.00338E+02  8.06031E-06  1.0E-07
  1.500E+00  1.71338E-04  5.53336E-15  1.97600E+02  8.68932E-06  1.0E-07
  1.600E+00  1.94942E-04  5.45618E-15  1.94844E+02  9.32701E-06  1.0E-07
  1.700E+00  2.20070E-04  5.37899E-15  1.92087E+02  9.97333E-06  1.0E-07
  1.800E+00  2.46720E-04  5.30221E-15  1.89345E+02  1.06282E-05  1.0E-07
  1.900E+00  2.74892E-04  5.22623E-15  1.86632E+02  1.12914E-05  1.0E-07
  2.000E+00  3.04586E-04  5.15132E-15  1.83957E+02  1.19629E-05  1.0E-07
  2.100E+00  3.35803E-04  5.07772E-15  1.81329E+02  1.26424E-05  1.0E-07
  2.200E+00  3.68542E-04  5.00559E-15  1.78753E+02  1.33298E-05  1.0E-07
  2.300E+00  4.02802E-04  4.93505E-15  1.76234E+02  1.40249E-05  1.0E-07
  2.400E+00  4.38585E-04  4.86615E-15  1.73773E+02  1.47274E-05  1.0E-07
  2.500E+00  4.75889E-04  4.79889E-15  1.71371E+02  1.54374E-05  1.0E-07
  2.600E+00  5.14715E-04  4.73324E-15  1.69027E+02  1.61546E-05  1.0E-07
  2.700E+00  5.55063E-04  4.66915E-15  1.66738E+02  1.68790E-05  1.0E-07
  2.800E+00  5.96931E-04  4.60651E-15  1.64502E+02  1.76106E-05  1.0E-07
  2.900E+00  6.40321E-04  4.54524E-15  1.62313E+02  1.83494E-05  1.0E-07
  3.000E+00  6.85233E-04  4.48521E-15  1.60170E+02  1.90954E-05  1.0E-07
  3.100E+00  7.31665E-04  4.42630E-15  1.58066E+02  1.98487E-05  1.0E-07
  3.200E+00  7.79618E-04  4.36840E-15  1.55999E+02  2.06093E-05  1.0E-07
  3.300E+00  8.29092E-04  4.31140E-15  1.53963E+02  2.13775E-05  1.0E-07
  3.400E+00  8.80086E-04  4.25520E-15  1.51956E+02  2.21533E-05  1.0E-07
  3.500E+00  9.32601E-04  4.19971E-15  1.49974E+02  2.29370E-05  1.0E-07
  3.600E+00  9.86636E-04  4.14486E-15  1.48016E+02  2.37285E-05  1.0E-07
  3.700E+00  1.04219E-03  4.09059E-15  1.46078E+02  2.45281E-05  1.0E-07
  3.800E+00  1.09927E-03  4.03687E-15  1.44159E+02  2.53359E-05  1.0E-07
  3.900E+00  1.15786E-03  3.98367E-15  1.42259E+02  2.61520E-05  1.0E-07
  4.000E+00  1.21797E-03  3.93098E-15  1.40378E+02  2.69764E-05  1.0E-07
  4.100E+00  1.27961E-03  3.87881E-15  1.38515E+02  2.78093E-05  1.0E-07
  4.200E+00  1.34276E-03  3.82716E-15  1.36671E+02  2.86505E-05  1.0E-07
  4.300E+00  1.40743E-03  3.77608E-15  1.34846E+02  2.95002E-05  1.0E-07
  4.400E+00  1.47362E-03  3.72557E-15  1.33042E+02  3.03583E-05  1.0E-07
  4.500E+00  1.54133E-03  3.67567E-15  1.31261E+02  3.12248E-05  1.0E-07
  4.600E+00  1.61056E-03  3.62641E-15  1.29502E+02  3.20995E-05  1.0E-07
  4.700E+00  1.68131E-03  3.57783E-15  1.27767E+02  3.29824E-05  1.0E-07
  4.800E+00  1.75357E-03  3.52995E-15  1.26057E+02  3.38734E-05  1.0E-07
  4.900E+00  1.82735E-03  3.48278E-15  1.24372E+02  3.47725E-05  1.0E-07
  5.000E+00  1.90265E-03  3.43635E-15  1.22714E+02  3.56795E-05  1.0E-07
  5.100E+00  1.97947E-03  3.39066E-15  1.21083E+02  3.65943E-05  1.0E-07
  5.200E+00  2.05780E-03  3.34571E-15  1.19477E+02  3.75170E-05  1.0E-07
  5.300E+00  2.13765E-03  3.30150E-15  1.17899E+02  3.84474E-05  1.0E-07
  5.400E+00  2.21902E-03  3.25801E-15  1.16346E+02  3.93856E-05  1.0E-07
  5.500E+00  2.30190E-03  3.21522E-15  1.14818E+02  4.03315E-05  1.0E-07
  5.600E+00  2.38630E-03  3.17312E-15  1.13314E+02  4.12850E-05  1.0E-07
  5.700E+00  2.47222E-03  3.13168E-15  1.11834E+02  4.22463E-05  1.0E-07
  5.800E+00  2.55965E-03  3.09086E-15  1.10377E+02  4.32154E-05  1.0E-07
  5.900E+00  2.64859E-03  3.05064E-15  1.08940E+02  4.41922E-05  1.0E-07
  6.000E+00  2.73905E-03  3.01098E-15  1.07524E+02  4.51770E-05  1.0E-07
  6.100E+00  2.83103E-03  2.97187E-15  1.06127E+02  4.61696E-05  1.0E-07
  6.200E+00  2.92452E-03  2.93327E-15  1.04749E+02  4.71702E-05  1.0E-07
  6.300E+00  3.01952E-03  2.89516E-15  1.03388E+02  4.81788E-05  1.0E-07
  6.400E+00  3.11604E-03  2.85752E-15  1.02044E+02  4.91955E-05  1.0E-07
  6.500E+00  3.21407E-03  2.82033E-15  1.00716E+02  5.02203E-05  1.0E-07
  6.600E+00  3.31362E-03  2.78358E-15  9.94034E+01  5.12532E-05  1.0E-07
  6.700E+00  3.41468E-03  2.74726E-15  9.81066E+01  5.22942E-05  1.0E-07
  6.800E+00  3.51725E-03  2.71138E-15  9.68251E+01  5.33433E-05  1.0E-07
  6.900E+00  3.62133E-03  2.67592E-15  9.55589E+01  5.44005E-05  1.0E-07
  7.000E+00  3.72692E-03  2.64089E-15  9.43080E+01  5.54658E-05  1.0E-07
  7.100E+00  3.83403E-03  2.60630E-15  9.30726E+01  5.65390E-05  1.0E-07
  7.200E+00  3.94265E-03  2.57214E-15  9.18528E+01  5.76201E-05  1.0E-07
  7.300E+00  4.05278E-03  2.53843E-15  9.06489E+01  5.87091E-05  1.0E-07
  7.400E+00  4.16442E-03  2.50516E-15  8.94610E+01  5.98059E-05  1.0E-07
  7.500E+00  4.27757E-03  2.47235E-15  8.82893E+01  6.09103E-05  1.0E-07
  7.600E+00  4.39223E-03  2.44000E-15  8.71338E+01  6.20224E-05  1.0E-07
  7.700E+00  4.50840E-03  2.40810E-15  8.59948E+01  6.31419E-05  1.0E-07
  7.800E+00  4.62608E-03  2.37666E-15  8.48722E+01  6.42689E-05  1.0E-07
  7.900E+00  4.74527E-03  2.34568E-15  8.37658E+01  6.54033E-05  1.0E-07
  8.000E+00  4.86597E-03  2.31515E-15  8.26756E+01  6.65449E-05  1.0E-07
  8.100E+00  4.98817E-03  2.28507E-15  8.16013E+01  6.76939E-05  1.0E-07
  8.200E+00  5.11188E-03  2.25542E-15  8.05427E+01  6.88500E-05  1.0E-07
  8.300E+00  5.23711E-03  2.22620E-15  7.94992E+01  7.00133E-05  1.0E-07
  8.400E+00  5.36383E-03  2.19740E-15  7.84706E+01  7.11838E-05  1.0E-07
  8.500E+00  5.49207E-03  2.16900E-15  7.74564E+01  7.23614E-05  1.0E-07
  8.600E+00  5.62181E-03  2.14099E-15  7.64561E+01  7.35460E-05  1.0E-07
  8.700E+00  5.75306E-03  2.11336E-15  7.54693E+01  7.47378E-05  1.0E-07
  8.800E+00  5.88581E-03  2.08609E-15  7.44955E+01  7.59366E-05  1.0E-07
  8.900E+00  6.02007E-03  2.05917E-15  7.35344E+01  7.71424E-05  1.0E-07
  9.000E+00  6.15583E-03  2.03260E-15  7.25854E+01  7.83551E-05  1.0E-07
  9.100E+00  6.29310E-03  2.00636E-15  7.16483E+01  7.95748E-05  1.0E-07
  9.200E+00  6.43187E-03  1.98044E-15  7.07228E+01  8.08014E-05  1.0E-07
  9.300E+00  6.57214E-03  1.95484E-15  6.98087E+01  8.20347E-05  1.0E-07
  9.400E+00  6.71392E-03  1.92955E-15  6.89057E+01  8.32748E-05  1.0E-07
  9.500E+00  6.85720E-03  1.90458E-15  6.80137E+01  8.45214E-05  1.0E-07
  9.600E+00  7.00198E-03  1.87991E-15  6.71327E+01  8.57747E-05  1.0E-07
  9.700E+00  7.14827E-03  1.85554E-15  6.62625E+01  8.70343E-05  1.0E-07
  9.800E+00  7.29605E-03  1.83148E-15  6.54033E+01  8.83003E-05  1.0E-07
  9.900E+00  7.44534E-03  1.80772E-15  6.45549E+01  8.95725E-05  1.0E-07
  1.000E+01  7.59612E-03  1.78427E-15  6.37174E+01  9.08508E-05  1.0E-07
  1.025E+01  7.97965E-03  1.72698E-15  6.16714E+01  9.40725E-05  1.0E-07
  1.050E+01  8.37255E-03  1.67159E-15  5.96936E+01  9.73299E-05  1.0E-07
  1.075E+01  8.77480E-03  1.61808E-15  5.77829E+01  1.00621E-04  1.0E-07
  1.100E+01  9.18641E-03  1.56640E-15  5.59372E+01  1.03945E-04  1.0E-07
  1.125E+01  9.60736E-03  1.51645E-15  5.41534E+01  1.07299E-04  1.0E-07
  1.150E+01  1.00376E-02  1.46813E-15  5.24280E+01  1.10681E-04  1.0E-07
  1.175E+01  1.04773E-02  1.42136E-15  5.07575E+01  1.14089E-04  1.0E-07
  1.200E+01  1.09262E-02  1.37603E-15  4.91389E+01  1.17520E-04  1.0E-07
  1.225E+01  1.13844E-02  1.33210E-15  4.75700E+01  1.20971E-04  1.0E-07
  1.250E+01  1.18520E-02  1.28952E-15  4.60497E+01  1.24439E-04  1.0E-07
  1.275E+01  1.23288E-02  1.24829E-15  4.45772E+01  1.27920E-04  1.0E-07
  1.300E+01  1.28150E-02  1.20838E-15  4.31520E+01  1.31412E-04  1.0E-07
  1.325E+01  1.33104E-02  1.16978E-15  4.17736E+01  1.34912E-04  1.0E-07
  1.350E+01  1.38150E-02  1.13246E-15  4.04409E+01  1.38416E-04  1.0E-07
  1.375E+01  1.43290E-02  1.09638E-15  3.91524E+01  1.41922E-04  1.0E-07
  1.400E+01  1.48521E-02  1.06148E-15  3.79062E+01  1.45426E-04  1.0E-07
