 #
 # Subroutine ELSEPA. Elastic scattering of electrons and positrons
 #                    by neutral atoms and positive ions
 #
 # Projectile: electron
 # Kinetic energy = 1.00000E+01 eV = 3.67493E-01 a.u.
 #
 #  ***  WARNING: Energy is too low.
 #                The reliability of the results is questionable.
 #
 # Element: Hg,  Z =  80,  atomic weight = 2.00590E+02 g/mol
 #
 # Nuclear model: Fermi distribution
 #                Average radius = 6.26355E-13 cm
 #                Skin thickness = 5.46000E-14 cm
 #
 # Number of electrons = 80
 #
 # Electron density: Read from file z_080.den   
 #                   Number of data points =  763
 #                   Volume integral = 8.00000E+01
 #
 # Furness-McCarthy exchange potential
 #
 # Correlation-polarization potential (Buckingham):
 #                           Alpha = 5.10000E-24 cm**3
 #                            Bpol = 1.00000E+00
 #
 # Total elastic cross section = 5.12759E-15 cm**2 = 1.83110E+02 a0**2
 # 1st transport cross section = 1.52282E-15 cm**2 = 5.43811E+01 a0**2
 # 2nd transport cross section = 2.42215E-15 cm**2 = 8.64964E+01 a0**2
 #
 #
 # Differential cross section:                       MU=(1-COS(THETA))/2
 #
 #  THETA        MU          DCS          DCS        Sherman      error
 #  (deg)                 (cm**2/sr)   (a0**2/sr)    function
 #----------------------------------------------------------------------
  0.000E+00  0.00000E+00  7.29582E-15  2.60538E+02  0.00000E+00  1.0E-07
  1.000E-04  7.61557E-13  7.29582E-15  2.60538E+02  5.87512E-08  1.0E-07
  1.250E-04  1.18994E-12  7.29582E-15  2.60538E+02  7.34390E-08  1.0E-07
  1.500E-04  1.71346E-12  7.29582E-15  2.60538E+02  8.81268E-08  1.0E-07
  1.750E-04  2.33225E-12  7.29582E-15  2.60538E+02  1.02815E-07  1.0E-07
  2.000E-04  3.04617E-12  7.29582E-15  2.60538E+02  1.17502E-07  1.0E-07
  2.250E-04  3.85530E-12  7.29582E-15  2.60538E+02  1.32190E-07  1.0E-07
  2.500E-04  4.75964E-12  7.29582E-15  2.60538E+02  1.46878E-07  1.0E-07
  2.750E-04  5.75917E-12  7.29582E-15  2.60538E+02  1.61566E-07  1.0E-07
  3.000E-04  6.85391E-12  7.29582E-15  2.60538E+02  1.76254E-07  1.0E-07
  3.250E-04  8.04379E-12  7.29582E-15  2.60538E+02  1.90941E-07  1.0E-07
  3.500E-04  9.32893E-12  7.29582E-15  2.60538E+02  2.05629E-07  1.0E-07
  3.750E-04  1.07092E-11  7.29582E-15  2.60538E+02  2.20317E-07  1.0E-07
  4.000E-04  1.21847E-11  7.29582E-15  2.60538E+02  2.35005E-07  1.0E-07
  4.250E-04  1.37554E-11  7.29582E-15  2.60538E+02  2.49693E-07  1.0E-07
  4.500E-04  1.54213E-11  7.29582E-15  2.60538E+02  2.64380E-07  1.0E-07
  4.750E-04  1.71823E-11  7.29582E-15  2.60538E+02  2.79068E-07  1.0E-07
  5.000E-04  1.90386E-11  7.29582E-15  2.60538E+02  2.93756E-07  1.0E-07
  5.250E-04  2.09900E-11  7.29582E-15  2.60538E+02  3.08444E-07  1.0E-07
  5.500E-04  2.30367E-11  7.29582E-15  2.60538E+02  3.23132E-07  1.0E-07
  5.750E-04  2.51785E-11  7.29582E-15  2.60538E+02  3.37819E-07  1.0E-07
  6.000E-04  2.74156E-11  7.29582E-15  2.60538E+02  3.52507E-07  1.0E-07
  6.250E-04  2.97478E-11  7.29582E-15  2.60538E+02  3.67195E-07  1.0E-07
  6.500E-04  3.21752E-11  7.29582E-15  2.60538E+02  3.81883E-07  1.0E-07
  6.750E-04  3.46979E-11  7.29582E-15  2.60538E+02  3.96571E-07  1.0E-07
  7.000E-04  3.73157E-11  7.29582E-15  2.60538E+02  4.11258E-07  1.0E-07
  7.250E-04  4.00286E-11  7.29582E-15  2.60538E+02  4.25946E-07  1.0E-07
  7.500E-04  4.28368E-11  7.29582E-15  2.60538E+02  4.40634E-07  1.0E-07
  7.750E-04  4.57402E-11  7.29582E-15  2.60538E+02  4.55322E-07  1.0E-07
  8.000E-04  4.87388E-11  7.29582E-15  2.60538E+02  4.70010E-07  1.0E-07
  8.250E-04  5.18325E-11  7.29582E-15  2.60538E+02  4.84697E-07  1.0E-07
  8.500E-04  5.50215E-11  7.29582E-15  2.60538E+02  4.99385E-07  1.0E-07
  8.750E-04  5.83057E-11  7.29582E-15  2.60538E+02  5.14073E-07  1.0E-07
  9.000E-04  6.16850E-11  7.29582E-15  2.60538E+02  5.28761E-07  1.0E-07
  9.250E-04  6.51595E-11  7.29582E-15  2.60538E+02  5.43449E-07  1.0E-07
  9.500E-04  6.87293E-11  7.29582E-15  2.60538E+02  5.58136E-07  1.0E-07
  9.750E-04  7.23943E-11  7.29582E-15  2.60538E+02  5.72824E-07  1.0E-07
  1.000E-03  7.61544E-11  7.29582E-15  2.60538E+02  5.87512E-07  1.0E-07
  1.250E-03  1.18991E-10  7.29582E-15  2.60538E+02  7.34390E-07  1.0E-07
  1.500E-03  1.71347E-10  7.29582E-15  2.60538E+02  8.81268E-07  1.0E-07
  1.750E-03  2.33223E-10  7.29582E-15  2.60538E+02  1.02815E-06  1.0E-07
  2.000E-03  3.04617E-10  7.29582E-15  2.60538E+02  1.17502E-06  1.0E-07
  2.250E-03  3.85531E-10  7.29582E-15  2.60538E+02  1.32190E-06  1.0E-07
  2.500E-03  4.75965E-10  7.29582E-15  2.60538E+02  1.46878E-06  1.0E-07
  2.750E-03  5.75917E-10  7.29582E-15  2.60538E+02  1.61566E-06  1.0E-07
  3.000E-03  6.85389E-10  7.29582E-15  2.60538E+02  1.76254E-06  1.0E-07
  3.250E-03  8.04380E-10  7.29582E-15  2.60538E+02  1.90941E-06  1.0E-07
  3.500E-03  9.32891E-10  7.29582E-15  2.60538E+02  2.05629E-06  1.0E-07
  3.750E-03  1.07092E-09  7.29582E-15  2.60538E+02  2.20317E-06  1.0E-07
  4.000E-03  1.21847E-09  7.29582E-15  2.60538E+02  2.35005E-06  1.0E-07
  4.250E-03  1.37554E-09  7.29582E-15  2.60538E+02  2.49693E-06  1.0E-07
  4.500E-03  1.54213E-09  7.29582E-15  2.60538E+02  2.64380E-06  1.0E-07
  4.750E-03  1.71823E-09  7.29581E-15  2.60538E+02  2.79068E-06  1.0E-07
  5.000E-03  1.90386E-09  7.29581E-15  2.60538E+02  2.93756E-06  1.0E-07
  5.250E-03  2.09900E-09  7.29581E-15  2.60538E+02  3.08444E-06  1.0E-07
  5.500E-03  2.30367E-09  7.29581E-15  2.60538E+02  3.23132E-06  1.0E-07
  5.750E-03  2.51785E-09  7.29581E-15  2.60538E+02  3.37820E-06  1.0E-07
  6.000E-03  2.74156E-09  7.29581E-15  2.60538E+02  3.52507E-06  1.0E-07
  6.250E-03  2.97478E-09  7.29581E-15  2.60538E+02  3.67195E-06  1.0E-07
  6.500E-03  3.21752E-09  7.29581E-15  2.60538E+02  3.81883E-06  1.0E-07
  6.750E-03  3.46978E-09  7.29581E-15  2.60538E+02  3.96571E-06  1.0E-07
  7.000E-03  3.73156E-09  7.29581E-15  2.60538E+02  4.11259E-06  1.0E-07
  7.250E-03  4.00286E-09  7.29581E-15  2.60538E+02  4.25946E-06  1.0E-07
  7.500E-03  4.28368E-09  7.29581E-15  2.60538E+02  4.40634E-06  1.0E-07
  7.750E-03  4.57402E-09  7.29581E-15  2.60538E+02  4.55322E-06  1.0E-07
  8.000E-03  4.87388E-09  7.29581E-15  2.60538E+02  4.70010E-06  1.0E-07
  8.250E-03  5.18326E-09  7.29581E-15  2.60538E+02  4.84698E-06  1.0E-07
  8.500E-03  5.50215E-09  7.29581E-15  2.60538E+02  4.99386E-06  1.0E-07
  8.750E-03  5.83057E-09  7.29581E-15  2.60538E+02  5.14073E-06  1.0E-07
  9.000E-03  6.16850E-09  7.29581E-15  2.60538E+02  5.28761E-06  1.0E-07
  9.250E-03  6.51596E-09  7.29581E-15  2.60538E+02  5.43449E-06  1.0E-07
  9.500E-03  6.87293E-09  7.29581E-15  2.60538E+02  5.58137E-06  1.0E-07
  9.750E-03  7.23942E-09  7.29581E-15  2.60538E+02  5.72825E-06  1.0E-07
  1.000E-02  7.61544E-09  7.29581E-15  2.60538E+02  5.87513E-06  1.0E-07
  1.250E-02  1.18991E-08  7.29581E-15  2.60538E+02  7.34391E-06  1.0E-07
  1.500E-02  1.71347E-08  7.29580E-15  2.60538E+02  8.81270E-06  1.0E-07
  1.750E-02  2.33223E-08  7.29580E-15  2.60538E+02  1.02815E-05  1.0E-07
  2.000E-02  3.04617E-08  7.29579E-15  2.60537E+02  1.17503E-05  1.0E-07
  2.250E-02  3.85531E-08  7.29578E-15  2.60537E+02  1.32191E-05  1.0E-07
  2.500E-02  4.75965E-08  7.29578E-15  2.60537E+02  1.46879E-05  1.0E-07
  2.750E-02  5.75917E-08  7.29577E-15  2.60537E+02  1.61567E-05  1.0E-07
  3.000E-02  6.85389E-08  7.29576E-15  2.60536E+02  1.76255E-05  1.0E-07
  3.250E-02  8.04380E-08  7.29575E-15  2.60536E+02  1.90943E-05  1.0E-07
  3.500E-02  9.32891E-08  7.29574E-15  2.60535E+02  2.05631E-05  1.0E-07
  3.750E-02  1.07092E-07  7.29573E-15  2.60535E+02  2.20319E-05  1.0E-07
  4.000E-02  1.21847E-07  7.29571E-15  2.60535E+02  2.35008E-05  1.0E-07
  4.250E-02  1.37554E-07  7.29570E-15  2.60534E+02  2.49696E-05  1.0E-07
  4.500E-02  1.54213E-07  7.29568E-15  2.60534E+02  2.64385E-05  1.0E-07
  4.750E-02  1.71823E-07  7.29567E-15  2.60533E+02  2.79073E-05  1.0E-07
  5.000E-02  1.90386E-07  7.29565E-15  2.60533E+02  2.93762E-05  1.0E-07
  5.250E-02  2.09900E-07  7.29564E-15  2.60532E+02  3.08450E-05  1.0E-07
  5.500E-02  2.30367E-07  7.29562E-15  2.60531E+02  3.23139E-05  1.0E-07
  5.750E-02  2.51785E-07  7.29560E-15  2.60531E+02  3.37828E-05  1.0E-07
  6.000E-02  2.74156E-07  7.29558E-15  2.60530E+02  3.52517E-05  1.0E-07
  6.250E-02  2.97478E-07  7.29556E-15  2.60529E+02  3.67206E-05  1.0E-07
  6.500E-02  3.21752E-07  7.29554E-15  2.60529E+02  3.81895E-05  1.0E-07
  6.750E-02  3.46978E-07  7.29552E-15  2.60528E+02  3.96584E-05  1.0E-07
  7.000E-02  3.73156E-07  7.29550E-15  2.60527E+02  4.11274E-05  1.0E-07
  7.250E-02  4.00286E-07  7.29547E-15  2.60526E+02  4.25963E-05  1.0E-07
  7.500E-02  4.28368E-07  7.29545E-15  2.60525E+02  4.40653E-05  1.0E-07
  7.750E-02  4.57402E-07  7.29543E-15  2.60524E+02  4.55343E-05  1.0E-07
  8.000E-02  4.87388E-07  7.29540E-15  2.60523E+02  4.70033E-05  1.0E-07
  8.250E-02  5.18325E-07  7.29537E-15  2.60523E+02  4.84723E-05  1.0E-07
  8.500E-02  5.50215E-07  7.29535E-15  2.60522E+02  4.99413E-05  1.0E-07
  8.750E-02  5.83057E-07  7.29532E-15  2.60521E+02  5.14103E-05  1.0E-07
  9.000E-02  6.16850E-07  7.29529E-15  2.60520E+02  5.28793E-05  1.0E-07
  9.250E-02  6.51596E-07  7.29526E-15  2.60518E+02  5.43484E-05  1.0E-07
  9.500E-02  6.87293E-07  7.29523E-15  2.60517E+02  5.58175E-05  1.0E-07
  9.750E-02  7.23942E-07  7.29520E-15  2.60516E+02  5.72866E-05  1.0E-07
  1.000E-01  7.61543E-07  7.29517E-15  2.60515E+02  5.87557E-05  1.0E-07
  1.250E-01  1.18991E-06  7.29480E-15  2.60502E+02  7.34477E-05  1.0E-07
  1.500E-01  1.71347E-06  7.29435E-15  2.60486E+02  8.81419E-05  1.0E-07
  1.750E-01  2.33223E-06  7.29383E-15  2.60467E+02  1.02839E-04  1.0E-07
  2.000E-01  3.04617E-06  7.29322E-15  2.60446E+02  1.17538E-04  1.0E-07
  2.250E-01  3.85531E-06  7.29253E-15  2.60421E+02  1.32241E-04  1.0E-07
  2.500E-01  4.75964E-06  7.29176E-15  2.60394E+02  1.46948E-04  1.0E-07
  2.750E-01  5.75916E-06  7.29091E-15  2.60363E+02  1.61659E-04  1.0E-07
  3.000E-01  6.85388E-06  7.28998E-15  2.60330E+02  1.76374E-04  1.0E-07
  3.250E-01  8.04378E-06  7.28897E-15  2.60294E+02  1.91095E-04  1.0E-07
  3.500E-01  9.32888E-06  7.28788E-15  2.60255E+02  2.05820E-04  1.0E-07
  3.750E-01  1.07092E-05  7.28671E-15  2.60213E+02  2.20552E-04  1.0E-07
  4.000E-01  1.21846E-05  7.28547E-15  2.60169E+02  2.35290E-04  1.0E-07
  4.250E-01  1.37553E-05  7.28414E-15  2.60121E+02  2.50034E-04  1.0E-07
  4.500E-01  1.54212E-05  7.28273E-15  2.60071E+02  2.64786E-04  1.0E-07
  4.750E-01  1.71822E-05  7.28125E-15  2.60018E+02  2.79545E-04  1.0E-07
  5.000E-01  1.90385E-05  7.27969E-15  2.59962E+02  2.94312E-04  1.0E-07
  5.250E-01  2.09899E-05  7.27805E-15  2.59904E+02  3.09087E-04  1.0E-07
  5.500E-01  2.30365E-05  7.27633E-15  2.59843E+02  3.23870E-04  1.0E-07
  5.750E-01  2.51783E-05  7.27454E-15  2.59779E+02  3.38663E-04  1.0E-07
  6.000E-01  2.74153E-05  7.27267E-15  2.59712E+02  3.53465E-04  1.0E-07
  6.250E-01  2.97475E-05  7.27072E-15  2.59642E+02  3.68277E-04  1.0E-07
  6.500E-01  3.21749E-05  7.26870E-15  2.59570E+02  3.83099E-04  1.0E-07
  6.750E-01  3.46974E-05  7.26660E-15  2.59495E+02  3.97931E-04  1.0E-07
  7.000E-01  3.73152E-05  7.26443E-15  2.59418E+02  4.12774E-04  1.0E-07
  7.250E-01  4.00281E-05  7.26219E-15  2.59337E+02  4.27629E-04  1.0E-07
  7.500E-01  4.28362E-05  7.25987E-15  2.59255E+02  4.42495E-04  1.0E-07
  7.750E-01  4.57395E-05  7.25747E-15  2.59169E+02  4.57374E-04  1.0E-07
  8.000E-01  4.87380E-05  7.25501E-15  2.59081E+02  4.72264E-04  1.0E-07
  8.250E-01  5.18317E-05  7.25247E-15  2.58990E+02  4.87168E-04  1.0E-07
  8.500E-01  5.50205E-05  7.24986E-15  2.58897E+02  5.02084E-04  1.0E-07
  8.750E-01  5.83045E-05  7.24718E-15  2.58801E+02  5.17014E-04  1.0E-07
  9.000E-01  6.16838E-05  7.24443E-15  2.58703E+02  5.31958E-04  1.0E-07
  9.250E-01  6.51582E-05  7.24161E-15  2.58602E+02  5.46916E-04  1.0E-07
  9.500E-01  6.87277E-05  7.23871E-15  2.58499E+02  5.61888E-04  1.0E-07
  9.750E-01  7.23925E-05  7.23575E-15  2.58393E+02  5.76876E-04  1.0E-07
  1.000E+00  7.61524E-05  7.23273E-15  2.58285E+02  5.91878E-04  1.0E-07
  1.100E+00  9.21439E-05  7.21995E-15  2.57829E+02  6.52045E-04  1.0E-07
  1.200E+00  1.09658E-04  7.20613E-15  2.57336E+02  7.12480E-04  1.0E-07
  1.300E+00  1.28695E-04  7.19132E-15  2.56807E+02  7.73201E-04  1.0E-07
  1.400E+00  1.49255E-04  7.17556E-15  2.56244E+02  8.34226E-04  1.0E-07
  1.500E+00  1.71338E-04  7.15891E-15  2.55649E+02  8.95572E-04  1.0E-07
  1.600E+00  1.94942E-04  7.14141E-15  2.55024E+02  9.57253E-04  1.0E-07
  1.700E+00  2.20070E-04  7.12311E-15  2.54371E+02  1.01928E-03  1.0E-07
  1.800E+00  2.46720E-04  7.10408E-15  2.53691E+02  1.08167E-03  1.0E-07
  1.900E+00  2.74892E-04  7.08435E-15  2.52987E+02  1.14444E-03  1.0E-07
  2.000E+00  3.04586E-04  7.06400E-15  2.52260E+02  1.20758E-03  1.0E-07
  2.100E+00  3.35803E-04  7.04306E-15  2.51512E+02  1.27111E-03  1.0E-07
  2.200E+00  3.68542E-04  7.02159E-15  2.50745E+02  1.33504E-03  1.0E-07
  2.300E+00  4.02802E-04  6.99964E-15  2.49962E+02  1.39936E-03  1.0E-07
  2.400E+00  4.38585E-04  6.97726E-15  2.49163E+02  1.46409E-03  1.0E-07
  2.500E+00  4.75889E-04  6.95451E-15  2.48350E+02  1.52923E-03  1.0E-07
  2.600E+00  5.14715E-04  6.93143E-15  2.47526E+02  1.59477E-03  1.0E-07
  2.700E+00  5.55063E-04  6.90806E-15  2.46691E+02  1.66072E-03  1.0E-07
  2.800E+00  5.96931E-04  6.88445E-15  2.45848E+02  1.72708E-03  1.0E-07
  2.900E+00  6.40321E-04  6.86064E-15  2.44998E+02  1.79383E-03  1.0E-07
  3.000E+00  6.85233E-04  6.83668E-15  2.44142E+02  1.86099E-03  1.0E-07
  3.100E+00  7.31665E-04  6.81259E-15  2.43282E+02  1.92855E-03  1.0E-07
  3.200E+00  7.79618E-04  6.78841E-15  2.42418E+02  1.99650E-03  1.0E-07
  3.300E+00  8.29092E-04  6.76417E-15  2.41553E+02  2.06484E-03  1.0E-07
  3.400E+00  8.80086E-04  6.73990E-15  2.40686E+02  2.13356E-03  1.0E-07
  3.500E+00  9.32601E-04  6.71563E-15  2.39819E+02  2.20265E-03  1.0E-07
  3.600E+00  9.86636E-04  6.69137E-15  2.38953E+02  2.27212E-03  1.0E-07
  3.700E+00  1.04219E-03  6.66716E-15  2.38089E+02  2.34196E-03  1.0E-07
  3.800E+00  1.09927E-03  6.64301E-15  2.37226E+02  2.41215E-03  1.0E-07
  3.900E+00  1.15786E-03  6.61893E-15  2.36366E+02  2.48270E-03  1.0E-07
  4.000E+00  1.21797E-03  6.59493E-15  2.35509E+02  2.55360E-03  1.0E-07
  4.100E+00  1.27961E-03  6.57104E-15  2.34656E+02  2.62484E-03  1.0E-07
  4.200E+00  1.34276E-03  6.54724E-15  2.33806E+02  2.69642E-03  1.0E-07
  4.300E+00  1.40743E-03  6.52356E-15  2.32961E+02  2.76833E-03  1.0E-07
  4.400E+00  1.47362E-03  6.50000E-15  2.32119E+02  2.84058E-03  1.0E-07
  4.500E+00  1.54133E-03  6.47655E-15  2.31282E+02  2.91315E-03  1.0E-07
  4.600E+00  1.61056E-03  6.45322E-15  2.30449E+02  2.98604E-03  1.0E-07
  4.700E+00  1.68131E-03  6.43001E-15  2.29620E+02  3.05925E-03  1.0E-07
  4.800E+00  1.75357E-03  6.40691E-15  2.28795E+02  3.13279E-03  1.0E-07
  4.900E+00  1.82735E-03  6.38392E-15  2.27974E+02  3.20664E-03  1.0E-07
  5.000E+00  1.90265E-03  6.36104E-15  2.27157E+02  3.28081E-03  1.0E-07
  5.100E+00  1.97947E-03  6.33826E-15  2.26343E+02  3.35531E-03  1.0E-07
  5.200E+00  2.05780E-03  6.31557E-15  2.25533E+02  3.43012E-03  1.0E-07
  5.300E+00  2.13765E-03  6.29297E-15  2.24726E+02  3.50525E-03  1.0E-07
  5.400E+00  2.21902E-03  6.27045E-15  2.23922E+02  3.58070E-03  1.0E-07
  5.500E+00  2.30190E-03  6.24800E-15  2.23120E+02  3.65648E-03  1.0E-07
  5.600E+00  2.38630E-03  6.22561E-15  2.22320E+02  3.73260E-03  1.0E-07
  5.700E+00  2.47222E-03  6.20328E-15  2.21523E+02  3.80904E-03  1.0E-07
  5.800E+00  2.55965E-03  6.18099E-15  2.20727E+02  3.88582E-03  1.0E-07
  5.900E+00  2.64859E-03  6.15875E-15  2.19933E+02  3.96294E-03  1.0E-07
  6.000E+00  2.73905E-03  6.13653E-15  2.19140E+02  4.04041E-03  1.0E-07
  6.100E+00  2.83103E-03  6.11434E-15  2.18347E+02  4.11823E-03  1.0E-07
  6.200E+00  2.92452E-03  6.09217E-15  2.17555E+02  4.19640E-03  1.0E-07
  6.300E+00  3.01952E-03  6.07002E-15  2.16764E+02  4.27493E-03  1.0E-07
  6.400E+00  3.11604E-03  6.04786E-15  2.15973E+02  4.35383E-03  1.0E-07
  6.500E+00  3.21407E-03  6.02572E-15  2.15182E+02  4.43310E-03  1.0E-07
  6.600E+00  3.31362E-03  6.00356E-15  2.14391E+02  4.51275E-03  1.0E-07
  6.700E+00  3.41468E-03  5.98140E-15  2.13600E+02  4.59277E-03  1.0E-07
  6.800E+00  3.51725E-03  5.95924E-15  2.12808E+02  4.67318E-03  1.0E-07
  6.900E+00  3.62133E-03  5.93706E-15  2.12016E+02  4.75398E-03  1.0E-07
  7.000E+00  3.72692E-03  5.91486E-15  2.11224E+02  4.83517E-03  1.0E-07
  7.100E+00  3.83403E-03  5.89266E-15  2.10431E+02  4.91675E-03  1.0E-07
  7.200E+00  3.94265E-03  5.87043E-15  2.09637E+02  4.99873E-03  1.0E-07
  7.300E+00  4.05278E-03  5.84820E-15  2.08843E+02  5.08112E-03  1.0E-07
  7.400E+00  4.16442E-03  5.82595E-15  2.08048E+02  5.16391E-03  1.0E-07
  7.500E+00  4.27757E-03  5.80368E-15  2.07253E+02  5.24710E-03  1.0E-07
  7.600E+00  4.39223E-03  5.78141E-15  2.06458E+02  5.33070E-03  1.0E-07
  7.700E+00  4.50840E-03  5.75913E-15  2.05662E+02  5.41471E-03  1.0E-07
  7.800E+00  4.62608E-03  5.73684E-15  2.04866E+02  5.49913E-03  1.0E-07
  7.900E+00  4.74527E-03  5.71454E-15  2.04070E+02  5.58396E-03  1.0E-07
  8.000E+00  4.86597E-03  5.69225E-15  2.03274E+02  5.66920E-03  1.0E-07
  8.100E+00  4.98817E-03  5.66996E-15  2.02478E+02  5.75485E-03  1.0E-07
  8.200E+00  5.11188E-03  5.64767E-15  2.01682E+02  5.84091E-03  1.0E-07
  8.300E+00  5.23711E-03  5.62540E-15  2.00887E+02  5.92737E-03  1.0E-07
  8.400E+00  5.36383E-03  5.60313E-15  2.00092E+02  6.01424E-03  1.0E-07
  8.500E+00  5.49207E-03  5.58089E-15  1.99297E+02  6.10152E-03  1.0E-07
  8.600E+00  5.62181E-03  5.55866E-15  1.98503E+02  6.18920E-03  1.0E-07
  8.700E+00  5.75306E-03  5.53645E-15  1.97710E+02  6.27729E-03  1.0E-07
  8.800E+00  5.88581E-03  5.51427E-15  1.96918E+02  6.36578E-03  1.0E-07
  8.900E+00  6.02007E-03  5.49211E-15  1.96127E+02  6.45467E-03  1.0E-07
  9.000E+00  6.15583E-03  5.46999E-15  1.95337E+02  6.54395E-03  1.0E-07
  9.100E+00  6.29310E-03  5.44790E-15  1.94548E+02  6.63364E-03  1.0E-07
  9.200E+00  6.43187E-03  5.42584E-15  1.93760E+02  6.72372E-03  1.0E-07
  9.300E+00  6.57214E-03  5.40382E-15  1.92974E+02  6.81420E-03  1.0E-07
  9.400E+00  6.71392E-03  5.38183E-15  1.92189E+02  6.90508E-03  1.0E-07
  9.500E+00  6.85720E-03  5.35989E-15  1.91405E+02  6.99635E-03  1.0E-07
  9.600E+00  7.00198E-03  5.33798E-15  1.90623E+02  7.08801E-03  1.0E-07
  9.700E+00  7.14827E-03  5.31611E-15  1.89842E+02  7.18008E-03  1.0E-07
  9.800E+00  7.29605E-03  5.29428E-15  1.89062E+02  7.27253E-03  1.0E-07
  9.900E+00  7.44534E-03  5.27250E-15  1.88284E+02  7.36539E-03  1.0E-07
  1.000E+01  7.59612E-03  5.25075E-15  1.87508E+02  7.45865E-03  1.0E-07
  1.025E+01  7.97965E-03  5.19655E-15  1.85572E+02  7.69354E-03  1.0E-07
  1.050E+01  8.37255E-03  5.14258E-15  1.83645E+02  7.93098E-03  1.0E-07
  1.075E+01  8.77480E-03  5.08883E-15  1.81725E+02  8.17102E-03  1.0E-07
  1.100E+01  9.18641E-03  5.03526E-15  1.79812E+02  8.41371E-03  1.0E-07
  1.125E+01  9.60736E-03  4.98186E-15  1.77906E+02  8.65913E-03  1.0E-07
  1.150E+01  1.00376E-02  4.92861E-15  1.76004E+02  8.90734E-03  1.0E-07
  1.175E+01  1.04773E-02  4.87548E-15  1.74107E+02  9.15843E-03  1.0E-07
  1.200E+01  1.09262E-02  4.82248E-15  1.72214E+02  9.41247E-03  1.0E-07
  1.225E+01  1.13844E-02  4.76958E-15  1.70325E+02  9.66952E-03  1.0E-07
  1.250E+01  1.18520E-02  4.71680E-15  1.68440E+02  9.92963E-03  1.0E-07
  1.275E+01  1.23288E-02  4.66414E-15  1.66560E+02  1.01929E-02  1.0E-07
  1.300E+01  1.28150E-02  4.61162E-15  1.64684E+02  1.04593E-02  1.0E-07
  1.325E+01  1.33104E-02  4.55924E-15  1.62813E+02  1.07289E-02  1.0E-07
  1.350E+01  1.38150E-02  4.50703E-15  1.60949E+02  1.10017E-02  1.0E-07
  1.375E+01  1.43290E-02  4.45500E-15  1.59091E+02  1.12777E-02  1.0E-07
  1.400E+01  1.48521E-02  4.40317E-15  1.57240E+02  1.15570E-02  1.0E-07
  1.425E+01  1.53845E-02  4.35156E-15  1.55397E+02  1.18395E-02  1.0E-07
  1.450E+01  1.59262E-02  4.30017E-15  1.53562E+02  1.21254E-02  1.0E-07
