 #
 # Subroutine ELSEPA. Elastic scattering of electrons and positrons
 #                    by neutral atoms and positive ions
 #
 # Projectile: electron
 # Kinetic energy = 2.40000E+04 eV = 8.81984E+02 a.u.
 #
 # Element: Hg,  Z =  80,  atomic weight = 2.00590E+02 g/mol
 #
 # Nuclear model: Fermi distribution
 #                Average radius = 6.26355E-13 cm
 #                Skin thickness = 5.46000E-14 cm
 #
 # Number of electrons = 80
 #
 # Electron density: Read from file z_080.den   
 #                   Number of data points =  763
 #                   Volume integral = 8.00000E+01
 #
 # Furness-McCarthy exchange potential
 #
 # Total elastic cross section = 5.05423E-17 cm**2 = 1.80490E+00 a0**2
 # 1st transport cross section = 1.28883E-18 cm**2 = 4.60250E-02 a0**2
 # 2nd transport cross section = 2.39810E-18 cm**2 = 8.56376E-02 a0**2
 #
 #
 # Differential cross section:                       MU=(1-COS(THETA))/2
 #
 #  THETA        MU          DCS          DCS        Sherman      error
 #  (deg)                 (cm**2/sr)   (a0**2/sr)    function
 #----------------------------------------------------------------------
  0.000E+00  0.00000E+00  8.69110E-15  3.10365E+02  0.00000E+00  1.0E-07
  1.000E-04  7.61557E-13  8.69110E-15  3.10365E+02  1.30354E-09  1.0E-07
  1.250E-04  1.18994E-12  8.69110E-15  3.10365E+02  1.62943E-09  1.0E-07
  1.500E-04  1.71346E-12  8.69110E-15  3.10365E+02  1.95532E-09  1.0E-07
  1.750E-04  2.33225E-12  8.69110E-15  3.10365E+02  2.28120E-09  1.0E-07
  2.000E-04  3.04617E-12  8.69110E-15  3.10365E+02  2.60709E-09  1.0E-07
  2.250E-04  3.85530E-12  8.69110E-15  3.10365E+02  2.93298E-09  1.0E-07
  2.500E-04  4.75964E-12  8.69110E-15  3.10365E+02  3.25886E-09  1.0E-07
  2.750E-04  5.75917E-12  8.69110E-15  3.10365E+02  3.58475E-09  1.0E-07
  3.000E-04  6.85391E-12  8.69110E-15  3.10365E+02  3.91063E-09  1.0E-07
  3.250E-04  8.04379E-12  8.69110E-15  3.10365E+02  4.23652E-09  1.0E-07
  3.500E-04  9.32893E-12  8.69110E-15  3.10365E+02  4.56241E-09  1.0E-07
  3.750E-04  1.07092E-11  8.69110E-15  3.10365E+02  4.88829E-09  1.0E-07
  4.000E-04  1.21847E-11  8.69110E-15  3.10365E+02  5.21418E-09  1.0E-07
  4.250E-04  1.37554E-11  8.69110E-15  3.10365E+02  5.54006E-09  1.0E-07
  4.500E-04  1.54213E-11  8.69110E-15  3.10365E+02  5.86595E-09  1.0E-07
  4.750E-04  1.71823E-11  8.69110E-15  3.10365E+02  6.19184E-09  1.0E-07
  5.000E-04  1.90386E-11  8.69110E-15  3.10365E+02  6.51772E-09  1.0E-07
  5.250E-04  2.09900E-11  8.69110E-15  3.10365E+02  6.84361E-09  1.0E-07
  5.500E-04  2.30367E-11  8.69110E-15  3.10365E+02  7.16950E-09  1.0E-07
  5.750E-04  2.51785E-11  8.69110E-15  3.10365E+02  7.49538E-09  1.0E-07
  6.000E-04  2.74156E-11  8.69110E-15  3.10365E+02  7.82127E-09  1.0E-07
  6.250E-04  2.97478E-11  8.69110E-15  3.10365E+02  8.14715E-09  1.0E-07
  6.500E-04  3.21752E-11  8.69110E-15  3.10365E+02  8.47304E-09  1.0E-07
  6.750E-04  3.46979E-11  8.69110E-15  3.10365E+02  8.79893E-09  1.0E-07
  7.000E-04  3.73157E-11  8.69110E-15  3.10365E+02  9.12481E-09  1.0E-07
  7.250E-04  4.00286E-11  8.69110E-15  3.10365E+02  9.45070E-09  1.0E-07
  7.500E-04  4.28368E-11  8.69110E-15  3.10365E+02  9.77658E-09  1.0E-07
  7.750E-04  4.57402E-11  8.69110E-15  3.10365E+02  1.01025E-08  1.0E-07
  8.000E-04  4.87388E-11  8.69110E-15  3.10365E+02  1.04284E-08  1.0E-07
  8.250E-04  5.18325E-11  8.69110E-15  3.10365E+02  1.07542E-08  1.0E-07
  8.500E-04  5.50215E-11  8.69110E-15  3.10365E+02  1.10801E-08  1.0E-07
  8.750E-04  5.83057E-11  8.69110E-15  3.10365E+02  1.14060E-08  1.0E-07
  9.000E-04  6.16850E-11  8.69110E-15  3.10365E+02  1.17319E-08  1.0E-07
  9.250E-04  6.51595E-11  8.69110E-15  3.10365E+02  1.20578E-08  1.0E-07
  9.500E-04  6.87293E-11  8.69110E-15  3.10365E+02  1.23837E-08  1.0E-07
  9.750E-04  7.23943E-11  8.69110E-15  3.10365E+02  1.27096E-08  1.0E-07
  1.000E-03  7.61544E-11  8.69110E-15  3.10365E+02  1.30354E-08  1.0E-07
  1.250E-03  1.18991E-10  8.69110E-15  3.10365E+02  1.62943E-08  1.0E-07
  1.500E-03  1.71347E-10  8.69109E-15  3.10365E+02  1.95532E-08  1.0E-07
  1.750E-03  2.33223E-10  8.69109E-15  3.10364E+02  2.28120E-08  1.0E-07
  2.000E-03  3.04617E-10  8.69109E-15  3.10364E+02  2.60709E-08  1.0E-07
  2.250E-03  3.85531E-10  8.69108E-15  3.10364E+02  2.93298E-08  1.0E-07
  2.500E-03  4.75965E-10  8.69108E-15  3.10364E+02  3.25887E-08  1.0E-07
  2.750E-03  5.75917E-10  8.69107E-15  3.10364E+02  3.58475E-08  1.0E-07
  3.000E-03  6.85389E-10  8.69107E-15  3.10364E+02  3.91064E-08  1.0E-07
  3.250E-03  8.04380E-10  8.69106E-15  3.10363E+02  4.23653E-08  1.0E-07
  3.500E-03  9.32891E-10  8.69105E-15  3.10363E+02  4.56242E-08  1.0E-07
  3.750E-03  1.07092E-09  8.69105E-15  3.10363E+02  4.88831E-08  1.0E-07
  4.000E-03  1.21847E-09  8.69104E-15  3.10363E+02  5.21420E-08  1.0E-07
  4.250E-03  1.37554E-09  8.69103E-15  3.10362E+02  5.54009E-08  1.0E-07
  4.500E-03  1.54213E-09  8.69102E-15  3.10362E+02  5.86598E-08  1.0E-07
  4.750E-03  1.71823E-09  8.69101E-15  3.10362E+02  6.19187E-08  1.0E-07
  5.000E-03  1.90386E-09  8.69100E-15  3.10361E+02  6.51776E-08  1.0E-07
  5.250E-03  2.09900E-09  8.69099E-15  3.10361E+02  6.84365E-08  1.0E-07
  5.500E-03  2.30367E-09  8.69098E-15  3.10361E+02  7.16954E-08  1.0E-07
  5.750E-03  2.51785E-09  8.69097E-15  3.10360E+02  7.49544E-08  1.0E-07
  6.000E-03  2.74156E-09  8.69096E-15  3.10360E+02  7.82133E-08  1.0E-07
  6.250E-03  2.97478E-09  8.69095E-15  3.10359E+02  8.14723E-08  1.0E-07
  6.500E-03  3.21752E-09  8.69093E-15  3.10359E+02  8.47312E-08  1.0E-07
  6.750E-03  3.46978E-09  8.69092E-15  3.10358E+02  8.79902E-08  1.0E-07
  7.000E-03  3.73156E-09  8.69091E-15  3.10358E+02  9.12491E-08  1.0E-07
  7.250E-03  4.00286E-09  8.69089E-15  3.10357E+02  9.45081E-08  1.0E-07
  7.500E-03  4.28368E-09  8.69088E-15  3.10357E+02  9.77671E-08  1.0E-07
  7.750E-03  4.57402E-09  8.69086E-15  3.10356E+02  1.01026E-07  1.0E-07
  8.000E-03  4.87388E-09  8.69085E-15  3.10356E+02  1.04285E-07  1.0E-07
  8.250E-03  5.18326E-09  8.69083E-15  3.10355E+02  1.07544E-07  1.0E-07
  8.500E-03  5.50215E-09  8.69082E-15  3.10355E+02  1.10803E-07  1.0E-07
  8.750E-03  5.83057E-09  8.69080E-15  3.10354E+02  1.14062E-07  1.0E-07
  9.000E-03  6.16850E-09  8.69078E-15  3.10353E+02  1.17321E-07  1.0E-07
  9.250E-03  6.51596E-09  8.69076E-15  3.10353E+02  1.20580E-07  1.0E-07
  9.500E-03  6.87293E-09  8.69074E-15  3.10352E+02  1.23839E-07  1.0E-07
  9.750E-03  7.23942E-09  8.69072E-15  3.10351E+02  1.27098E-07  1.0E-07
  1.000E-02  7.61544E-09  8.69070E-15  3.10351E+02  1.30357E-07  1.0E-07
  1.250E-02  1.18991E-08  8.69048E-15  3.10343E+02  1.62949E-07  1.0E-07
  1.500E-02  1.71347E-08  8.69021E-15  3.10333E+02  1.95542E-07  1.0E-07
  1.750E-02  2.33223E-08  8.68988E-15  3.10321E+02  2.28136E-07  1.0E-07
  2.000E-02  3.04617E-08  8.68951E-15  3.10308E+02  2.60733E-07  1.0E-07
  2.250E-02  3.85531E-08  8.68909E-15  3.10293E+02  2.93332E-07  1.0E-07
  2.500E-02  4.75965E-08  8.68862E-15  3.10276E+02  3.25933E-07  1.0E-07
  2.750E-02  5.75917E-08  8.68809E-15  3.10257E+02  3.58538E-07  1.0E-07
  3.000E-02  6.85389E-08  8.68752E-15  3.10237E+02  3.91145E-07  1.0E-07
  3.250E-02  8.04380E-08  8.68690E-15  3.10215E+02  4.23756E-07  1.0E-07
  3.500E-02  9.32891E-08  8.68623E-15  3.10191E+02  4.56370E-07  1.0E-07
  3.750E-02  1.07092E-07  8.68551E-15  3.10165E+02  4.88989E-07  1.0E-07
  4.000E-02  1.21847E-07  8.68474E-15  3.10138E+02  5.21611E-07  1.0E-07
  4.250E-02  1.37554E-07  8.68392E-15  3.10108E+02  5.54239E-07  1.0E-07
  4.500E-02  1.54213E-07  8.68305E-15  3.10077E+02  5.86871E-07  1.0E-07
  4.750E-02  1.71823E-07  8.68213E-15  3.10044E+02  6.19508E-07  1.0E-07
  5.000E-02  1.90386E-07  8.68116E-15  3.10010E+02  6.52150E-07  1.0E-07
  5.250E-02  2.09900E-07  8.68014E-15  3.09974E+02  6.84798E-07  1.0E-07
  5.500E-02  2.30367E-07  8.67908E-15  3.09935E+02  7.17453E-07  1.0E-07
  5.750E-02  2.51785E-07  8.67796E-15  3.09896E+02  7.50113E-07  1.0E-07
  6.000E-02  2.74156E-07  8.67679E-15  3.09854E+02  7.82780E-07  1.0E-07
  6.250E-02  2.97478E-07  8.67558E-15  3.09810E+02  8.15454E-07  1.0E-07
  6.500E-02  3.21752E-07  8.67431E-15  3.09765E+02  8.48134E-07  1.0E-07
  6.750E-02  3.46978E-07  8.67300E-15  3.09718E+02  8.80822E-07  1.0E-07
  7.000E-02  3.73156E-07  8.67163E-15  3.09670E+02  9.13518E-07  1.0E-07
  7.250E-02  4.00286E-07  8.67022E-15  3.09619E+02  9.46222E-07  1.0E-07
  7.500E-02  4.28368E-07  8.66876E-15  3.09567E+02  9.78934E-07  1.0E-07
  7.750E-02  4.57402E-07  8.66725E-15  3.09513E+02  1.01165E-06  1.0E-07
  8.000E-02  4.87388E-07  8.66569E-15  3.09457E+02  1.04438E-06  1.0E-07
  8.250E-02  5.18325E-07  8.66408E-15  3.09400E+02  1.07712E-06  1.0E-07
  8.500E-02  5.50215E-07  8.66242E-15  3.09341E+02  1.10987E-06  1.0E-07
  8.750E-02  5.83057E-07  8.66072E-15  3.09280E+02  1.14263E-06  1.0E-07
  9.000E-02  6.16850E-07  8.65896E-15  3.09217E+02  1.17539E-06  1.0E-07
  9.250E-02  6.51596E-07  8.65716E-15  3.09153E+02  1.20817E-06  1.0E-07
  9.500E-02  6.87293E-07  8.65530E-15  3.09086E+02  1.24096E-06  1.0E-07
  9.750E-02  7.23942E-07  8.65340E-15  3.09019E+02  1.27376E-06  1.0E-07
  1.000E-01  7.61543E-07  8.65145E-15  3.08949E+02  1.30657E-06  1.0E-07
  1.250E-01  1.18991E-06  8.62928E-15  3.08157E+02  1.63533E-06  1.0E-07
  1.500E-01  1.71347E-06  8.60231E-15  3.07194E+02  1.96551E-06  1.0E-07
  1.750E-01  2.33223E-06  8.57061E-15  3.06062E+02  2.29739E-06  1.0E-07
  2.000E-01  3.04617E-06  8.53429E-15  3.04765E+02  2.63124E-06  1.0E-07
  2.250E-01  3.85531E-06  8.49343E-15  3.03306E+02  2.96735E-06  1.0E-07
  2.500E-01  4.75964E-06  8.44816E-15  3.01689E+02  3.30598E-06  1.0E-07
  2.750E-01  5.75916E-06  8.39858E-15  2.99919E+02  3.64743E-06  1.0E-07
  3.000E-01  6.85388E-06  8.34484E-15  2.98000E+02  3.99196E-06  1.0E-07
  3.250E-01  8.04378E-06  8.28709E-15  2.95937E+02  4.33985E-06  1.0E-07
  3.500E-01  9.32888E-06  8.22546E-15  2.93736E+02  4.69136E-06  1.0E-07
  3.750E-01  1.07092E-05  8.16012E-15  2.91403E+02  5.04677E-06  1.0E-07
  4.000E-01  1.21846E-05  8.09123E-15  2.88943E+02  5.40634E-06  1.0E-07
  4.250E-01  1.37553E-05  8.01896E-15  2.86362E+02  5.77035E-06  1.0E-07
  4.500E-01  1.54212E-05  7.94349E-15  2.83667E+02  6.13904E-06  1.0E-07
  4.750E-01  1.71822E-05  7.86500E-15  2.80864E+02  6.51268E-06  1.0E-07
  5.000E-01  1.90385E-05  7.78367E-15  2.77960E+02  6.89153E-06  1.0E-07
  5.250E-01  2.09899E-05  7.69968E-15  2.74961E+02  7.27584E-06  1.0E-07
  5.500E-01  2.30365E-05  7.61322E-15  2.71873E+02  7.66586E-06  1.0E-07
  5.750E-01  2.51783E-05  7.52448E-15  2.68704E+02  8.06184E-06  1.0E-07
  6.000E-01  2.74153E-05  7.43363E-15  2.65460E+02  8.46402E-06  1.0E-07
  6.250E-01  2.97475E-05  7.34087E-15  2.62147E+02  8.87265E-06  1.0E-07
  6.500E-01  3.21749E-05  7.24638E-15  2.58773E+02  9.28796E-06  1.0E-07
  6.750E-01  3.46974E-05  7.15033E-15  2.55343E+02  9.71019E-06  1.0E-07
  7.000E-01  3.73152E-05  7.05291E-15  2.51864E+02  1.01396E-05  1.0E-07
  7.250E-01  4.00281E-05  6.95428E-15  2.48342E+02  1.05763E-05  1.0E-07
  7.500E-01  4.28362E-05  6.85461E-15  2.44783E+02  1.10207E-05  1.0E-07
  7.750E-01  4.57395E-05  6.75408E-15  2.41193E+02  1.14729E-05  1.0E-07
  8.000E-01  4.87380E-05  6.65283E-15  2.37577E+02  1.19331E-05  1.0E-07
  8.250E-01  5.18317E-05  6.55103E-15  2.33941E+02  1.24015E-05  1.0E-07
  8.500E-01  5.50205E-05  6.44881E-15  2.30291E+02  1.28785E-05  1.0E-07
  8.750E-01  5.83045E-05  6.34633E-15  2.26632E+02  1.33641E-05  1.0E-07
  9.000E-01  6.16838E-05  6.24372E-15  2.22967E+02  1.38585E-05  1.0E-07
  9.250E-01  6.51582E-05  6.14110E-15  2.19303E+02  1.43620E-05  1.0E-07
  9.500E-01  6.87277E-05  6.03860E-15  2.15642E+02  1.48748E-05  1.0E-07
  9.750E-01  7.23925E-05  5.93634E-15  2.11991E+02  1.53970E-05  1.0E-07
  1.000E+00  7.61524E-05  5.83443E-15  2.08351E+02  1.59289E-05  1.0E-07
  1.100E+00  9.21439E-05  5.43223E-15  1.93989E+02  1.81560E-05  1.0E-07
  1.200E+00  1.09658E-04  5.04275E-15  1.80080E+02  2.05511E-05  1.0E-07
  1.300E+00  1.28695E-04  4.67009E-15  1.66772E+02  2.31243E-05  1.0E-07
  1.400E+00  1.49255E-04  4.31701E-15  1.54163E+02  2.58845E-05  1.0E-07
  1.500E+00  1.71338E-04  3.98514E-15  1.42312E+02  2.88402E-05  1.0E-07
  1.600E+00  1.94942E-04  3.67520E-15  1.31244E+02  3.19987E-05  1.0E-07
  1.700E+00  2.20070E-04  3.38722E-15  1.20960E+02  3.53671E-05  1.0E-07
  1.800E+00  2.46720E-04  3.12073E-15  1.11443E+02  3.89514E-05  1.0E-07
  1.900E+00  2.74892E-04  2.87491E-15  1.02665E+02  4.27572E-05  1.0E-07
  2.000E+00  3.04586E-04  2.64869E-15  9.45865E+01  4.67893E-05  1.0E-07
  2.100E+00  3.35803E-04  2.44089E-15  8.71659E+01  5.10522E-05  1.0E-07
  2.200E+00  3.68542E-04  2.25026E-15  8.03581E+01  5.55494E-05  1.0E-07
  2.300E+00  4.02802E-04  2.07552E-15  7.41183E+01  6.02841E-05  1.0E-07
  2.400E+00  4.38585E-04  1.91546E-15  6.84022E+01  6.52585E-05  1.0E-07
  2.500E+00  4.75889E-04  1.76887E-15  6.31675E+01  7.04745E-05  1.0E-07
  2.600E+00  5.14715E-04  1.63464E-15  5.83740E+01  7.59328E-05  1.0E-07
  2.700E+00  5.55063E-04  1.51172E-15  5.39844E+01  8.16334E-05  1.0E-07
  2.800E+00  5.96931E-04  1.39913E-15  4.99638E+01  8.75756E-05  1.0E-07
  2.900E+00  6.40321E-04  1.29597E-15  4.62800E+01  9.37573E-05  1.0E-07
  3.000E+00  6.85233E-04  1.20142E-15  4.29035E+01  1.00176E-04  1.0E-07
  3.100E+00  7.31665E-04  1.11472E-15  3.98074E+01  1.06827E-04  1.0E-07
  3.200E+00  7.79618E-04  1.03518E-15  3.69669E+01  1.13705E-04  1.0E-07
  3.300E+00  8.29092E-04  9.62168E-16  3.43596E+01  1.20805E-04  1.0E-07
  3.400E+00  8.80086E-04  8.95111E-16  3.19650E+01  1.28119E-04  1.0E-07
  3.500E+00  9.32601E-04  8.33488E-16  2.97644E+01  1.35636E-04  1.0E-07
  3.600E+00  9.86636E-04  7.76822E-16  2.77408E+01  1.43349E-04  1.0E-07
  3.700E+00  1.04219E-03  7.24683E-16  2.58789E+01  1.51245E-04  1.0E-07
  3.800E+00  1.09927E-03  6.76677E-16  2.41646E+01  1.59311E-04  1.0E-07
  3.900E+00  1.15786E-03  6.32447E-16  2.25851E+01  1.67533E-04  1.0E-07
  4.000E+00  1.21797E-03  5.91669E-16  2.11289E+01  1.75897E-04  1.0E-07
  4.100E+00  1.27961E-03  5.54046E-16  1.97854E+01  1.84387E-04  1.0E-07
  4.200E+00  1.34276E-03  5.19310E-16  1.85449E+01  1.92984E-04  1.0E-07
  4.300E+00  1.40743E-03  4.87217E-16  1.73988E+01  2.01671E-04  1.0E-07
  4.400E+00  1.47362E-03  4.57542E-16  1.63391E+01  2.10428E-04  1.0E-07
  4.500E+00  1.54133E-03  4.30083E-16  1.53585E+01  2.19237E-04  1.0E-07
  4.600E+00  1.61056E-03  4.04655E-16  1.44505E+01  2.28075E-04  1.0E-07
  4.700E+00  1.68131E-03  3.81089E-16  1.36089E+01  2.36921E-04  1.0E-07
  4.800E+00  1.75357E-03  3.59232E-16  1.28284E+01  2.45755E-04  1.0E-07
  4.900E+00  1.82735E-03  3.38942E-16  1.21038E+01  2.54553E-04  1.0E-07
  5.000E+00  1.90265E-03  3.20092E-16  1.14307E+01  2.63295E-04  1.0E-07
  5.100E+00  1.97947E-03  3.02565E-16  1.08048E+01  2.71956E-04  1.0E-07
  5.200E+00  2.05780E-03  2.86254E-16  1.02223E+01  2.80516E-04  1.0E-07
  5.300E+00  2.13765E-03  2.71061E-16  9.67978E+00  2.88950E-04  1.0E-07
  5.400E+00  2.21902E-03  2.56898E-16  9.17401E+00  2.97238E-04  1.0E-07
  5.500E+00  2.30190E-03  2.43683E-16  8.70209E+00  3.05358E-04  1.0E-07
  5.600E+00  2.38630E-03  2.31342E-16  8.26137E+00  3.13287E-04  1.0E-07
  5.700E+00  2.47222E-03  2.19806E-16  7.84941E+00  3.21005E-04  1.0E-07
  5.800E+00  2.55965E-03  2.09013E-16  7.46399E+00  3.28490E-04  1.0E-07
  5.900E+00  2.64859E-03  1.98906E-16  7.10306E+00  3.35723E-04  1.0E-07
  6.000E+00  2.73905E-03  1.89433E-16  6.76477E+00  3.42683E-04  1.0E-07
  6.100E+00  2.83103E-03  1.80546E-16  6.44740E+00  3.49351E-04  1.0E-07
  6.200E+00  2.92452E-03  1.72201E-16  6.14940E+00  3.55708E-04  1.0E-07
  6.300E+00  3.01952E-03  1.64358E-16  5.86932E+00  3.61737E-04  1.0E-07
  6.400E+00  3.11604E-03  1.56980E-16  5.60585E+00  3.67418E-04  1.0E-07
  6.500E+00  3.21407E-03  1.50034E-16  5.35779E+00  3.72735E-04  1.0E-07
  6.600E+00  3.31362E-03  1.43488E-16  5.12403E+00  3.77671E-04  1.0E-07
  6.700E+00  3.41468E-03  1.37314E-16  4.90356E+00  3.82209E-04  1.0E-07
  6.800E+00  3.51725E-03  1.31485E-16  4.69543E+00  3.86333E-04  1.0E-07
  6.900E+00  3.62133E-03  1.25979E-16  4.49880E+00  3.90027E-04  1.0E-07
  7.000E+00  3.72692E-03  1.20773E-16  4.31287E+00  3.93276E-04  1.0E-07
  7.100E+00  3.83403E-03  1.15845E-16  4.13691E+00  3.96065E-04  1.0E-07
  7.200E+00  3.94265E-03  1.11179E-16  3.97027E+00  3.98378E-04  1.0E-07
  7.300E+00  4.05278E-03  1.06756E-16  3.81231E+00  4.00201E-04  1.0E-07
  7.400E+00  4.16442E-03  1.02560E-16  3.66249E+00  4.01519E-04  1.0E-07
  7.500E+00  4.27757E-03  9.85776E-17  3.52027E+00  4.02317E-04  1.0E-07
  7.600E+00  4.39223E-03  9.47944E-17  3.38517E+00  4.02582E-04  1.0E-07
  7.700E+00  4.50840E-03  9.11980E-17  3.25674E+00  4.02298E-04  1.0E-07
  7.800E+00  4.62608E-03  8.77771E-17  3.13458E+00  4.01451E-04  1.0E-07
  7.900E+00  4.74527E-03  8.45208E-17  3.01829E+00  4.00027E-04  1.0E-07
  8.000E+00  4.86597E-03  8.14193E-17  2.90754E+00  3.98012E-04  1.0E-07
  8.100E+00  4.98817E-03  7.84635E-17  2.80198E+00  3.95391E-04  1.0E-07
  8.200E+00  5.11188E-03  7.56447E-17  2.70132E+00  3.92150E-04  1.0E-07
  8.300E+00  5.23711E-03  7.29552E-17  2.60528E+00  3.88275E-04  1.0E-07
  8.400E+00  5.36383E-03  7.03875E-17  2.51358E+00  3.83750E-04  1.0E-07
  8.500E+00  5.49207E-03  6.79350E-17  2.42600E+00  3.78563E-04  1.0E-07
  8.600E+00  5.62181E-03  6.55911E-17  2.34230E+00  3.72698E-04  1.0E-07
  8.700E+00  5.75306E-03  6.33501E-17  2.26227E+00  3.66141E-04  1.0E-07
  8.800E+00  5.88581E-03  6.12064E-17  2.18572E+00  3.58879E-04  1.0E-07
  8.900E+00  6.02007E-03  5.91548E-17  2.11246E+00  3.50896E-04  1.0E-07
  9.000E+00  6.15583E-03  5.71906E-17  2.04231E+00  3.42180E-04  1.0E-07
  9.100E+00  6.29310E-03  5.53092E-17  1.97513E+00  3.32715E-04  1.0E-07
  9.200E+00  6.43187E-03  5.35064E-17  1.91075E+00  3.22489E-04  1.0E-07
  9.300E+00  6.57214E-03  5.17782E-17  1.84903E+00  3.11488E-04  1.0E-07
  9.400E+00  6.71392E-03  5.01210E-17  1.78985E+00  2.99698E-04  1.0E-07
  9.500E+00  6.85720E-03  4.85313E-17  1.73309E+00  2.87107E-04  1.0E-07
  9.600E+00  7.00198E-03  4.70058E-17  1.67861E+00  2.73703E-04  1.0E-07
  9.700E+00  7.14827E-03  4.55414E-17  1.62631E+00  2.59472E-04  1.0E-07
  9.800E+00  7.29605E-03  4.41353E-17  1.57610E+00  2.44404E-04  1.0E-07
  9.900E+00  7.44534E-03  4.27846E-17  1.52787E+00  2.28487E-04  1.0E-07
  1.000E+01  7.59612E-03  4.14868E-17  1.48152E+00  2.11711E-04  1.0E-07
  1.025E+01  7.97965E-03  3.84582E-17  1.37337E+00  1.65943E-04  1.0E-07
  1.050E+01  8.37255E-03  3.57109E-17  1.27526E+00  1.14600E-04  1.0E-07
  1.075E+01  8.77480E-03  3.32146E-17  1.18611E+00  5.75663E-05  1.0E-07
  1.100E+01  9.18641E-03  3.09429E-17  1.10499E+00 -5.23879E-06  1.0E-07
  1.125E+01  9.60736E-03  2.88725E-17  1.03106E+00 -7.38631E-05  1.0E-07
  1.150E+01  1.00376E-02  2.69829E-17  9.63577E-01 -1.48317E-04  1.0E-07
  1.175E+01  1.04773E-02  2.52558E-17  9.01901E-01 -2.28572E-04  1.0E-07
  1.200E+01  1.09262E-02  2.36750E-17  8.45450E-01 -3.14559E-04  1.0E-07
  1.225E+01  1.13844E-02  2.22261E-17  7.93707E-01 -4.06171E-04  1.0E-07
  1.250E+01  1.18520E-02  2.08961E-17  7.46213E-01 -5.03260E-04  1.0E-07
  1.275E+01  1.23288E-02  1.96736E-17  7.02556E-01 -6.05643E-04  1.0E-07
  1.300E+01  1.28150E-02  1.85482E-17  6.62367E-01 -7.13099E-04  1.0E-07
  1.325E+01  1.33104E-02  1.75106E-17  6.25316E-01 -8.25375E-04  1.0E-07
  1.350E+01  1.38150E-02  1.65527E-17  5.91107E-01 -9.42191E-04  1.0E-07
  1.375E+01  1.43290E-02  1.56668E-17  5.59472E-01 -1.06324E-03  1.0E-07
  1.400E+01  1.48521E-02  1.48464E-17  5.30173E-01 -1.18818E-03  1.0E-07
  1.425E+01  1.53845E-02  1.40853E-17  5.02995E-01 -1.31668E-03  1.0E-07
  1.450E+01  1.59262E-02  1.33782E-17  4.77744E-01 -1.44836E-03  1.0E-07
  1.475E+01  1.64770E-02  1.27202E-17  4.54247E-01 -1.58285E-03  1.0E-07
  1.500E+01  1.70371E-02  1.21070E-17  4.32347E-01 -1.71977E-03  1.0E-07
  1.525E+01  1.76063E-02  1.15345E-17  4.11904E-01 -1.85871E-03  1.0E-07
  1.550E+01  1.81848E-02  1.09992E-17  3.92790E-01 -1.99929E-03  1.0E-07
