 #
 # Subroutine ELSEPA. Elastic scattering of electrons and positrons
 #                    by neutral atoms and positive ions
 #
 # Projectile: electron
 # Kinetic energy = 8.00000E+01 eV = 2.93995E+00 a.u.
 #
 #  ***  WARNING: Energy is too low.
 #                The reliability of the results is questionable.
 #
 # Element: Hg,  Z =  80,  atomic weight = 2.00590E+02 g/mol
 #
 # Nuclear model: Fermi distribution
 #                Average radius = 6.26355E-13 cm
 #                Skin thickness = 5.46000E-14 cm
 #
 # Number of electrons = 80
 #
 # Electron density: Read from file z_080.den   
 #                   Number of data points =  763
 #                   Volume integral = 8.00000E+01
 #
 # Furness-McCarthy exchange potential
 #
 # Correlation-polarization potential (Buckingham):
 #                           Alpha = 5.10000E-24 cm**3
 #                            Bpol = 1.36931E+00
 #
 # Total elastic cross section = 1.09932E-15 cm**2 = 3.92575E+01 a0**2
 # 1st transport cross section = 4.29497E-16 cm**2 = 1.53376E+01 a0**2
 # 2nd transport cross section = 6.05102E-16 cm**2 = 2.16086E+01 a0**2
 #
 #
 # Differential cross section:                       MU=(1-COS(THETA))/2
 #
 #  THETA        MU          DCS          DCS        Sherman      error
 #  (deg)                 (cm**2/sr)   (a0**2/sr)    function
 #----------------------------------------------------------------------
  0.000E+00  0.00000E+00  4.81713E-15  1.72023E+02  0.00000E+00  1.0E-07
  1.000E-04  7.61557E-13  4.81713E-15  1.72023E+02 -6.44436E-08  1.0E-07
  1.250E-04  1.18994E-12  4.81713E-15  1.72023E+02 -8.05545E-08  1.0E-07
  1.500E-04  1.71346E-12  4.81713E-15  1.72023E+02 -9.66654E-08  1.0E-07
  1.750E-04  2.33225E-12  4.81713E-15  1.72023E+02 -1.12776E-07  1.0E-07
  2.000E-04  3.04617E-12  4.81713E-15  1.72023E+02 -1.28887E-07  1.0E-07
  2.250E-04  3.85530E-12  4.81713E-15  1.72023E+02 -1.44998E-07  1.0E-07
  2.500E-04  4.75964E-12  4.81713E-15  1.72023E+02 -1.61109E-07  1.0E-07
  2.750E-04  5.75917E-12  4.81713E-15  1.72023E+02 -1.77220E-07  1.0E-07
  3.000E-04  6.85391E-12  4.81713E-15  1.72023E+02 -1.93331E-07  1.0E-07
  3.250E-04  8.04379E-12  4.81713E-15  1.72023E+02 -2.09442E-07  1.0E-07
  3.500E-04  9.32893E-12  4.81713E-15  1.72023E+02 -2.25553E-07  1.0E-07
  3.750E-04  1.07092E-11  4.81713E-15  1.72023E+02 -2.41664E-07  1.0E-07
  4.000E-04  1.21847E-11  4.81713E-15  1.72023E+02 -2.57774E-07  1.0E-07
  4.250E-04  1.37554E-11  4.81713E-15  1.72023E+02 -2.73885E-07  1.0E-07
  4.500E-04  1.54213E-11  4.81713E-15  1.72023E+02 -2.89996E-07  1.0E-07
  4.750E-04  1.71823E-11  4.81713E-15  1.72023E+02 -3.06107E-07  1.0E-07
  5.000E-04  1.90386E-11  4.81713E-15  1.72023E+02 -3.22218E-07  1.0E-07
  5.250E-04  2.09900E-11  4.81713E-15  1.72023E+02 -3.38329E-07  1.0E-07
  5.500E-04  2.30367E-11  4.81713E-15  1.72023E+02 -3.54440E-07  1.0E-07
  5.750E-04  2.51785E-11  4.81713E-15  1.72023E+02 -3.70551E-07  1.0E-07
  6.000E-04  2.74156E-11  4.81713E-15  1.72023E+02 -3.86662E-07  1.0E-07
  6.250E-04  2.97478E-11  4.81713E-15  1.72023E+02 -4.02773E-07  1.0E-07
  6.500E-04  3.21752E-11  4.81713E-15  1.72023E+02 -4.18883E-07  1.0E-07
  6.750E-04  3.46979E-11  4.81713E-15  1.72023E+02 -4.34994E-07  1.0E-07
  7.000E-04  3.73157E-11  4.81713E-15  1.72023E+02 -4.51105E-07  1.0E-07
  7.250E-04  4.00286E-11  4.81713E-15  1.72023E+02 -4.67216E-07  1.0E-07
  7.500E-04  4.28368E-11  4.81713E-15  1.72023E+02 -4.83327E-07  1.0E-07
  7.750E-04  4.57402E-11  4.81713E-15  1.72023E+02 -4.99438E-07  1.0E-07
  8.000E-04  4.87388E-11  4.81713E-15  1.72023E+02 -5.15549E-07  1.0E-07
  8.250E-04  5.18325E-11  4.81713E-15  1.72023E+02 -5.31660E-07  1.0E-07
  8.500E-04  5.50215E-11  4.81713E-15  1.72023E+02 -5.47771E-07  1.0E-07
  8.750E-04  5.83057E-11  4.81713E-15  1.72023E+02 -5.63882E-07  1.0E-07
  9.000E-04  6.16850E-11  4.81713E-15  1.72023E+02 -5.79992E-07  1.0E-07
  9.250E-04  6.51595E-11  4.81713E-15  1.72023E+02 -5.96103E-07  1.0E-07
  9.500E-04  6.87293E-11  4.81713E-15  1.72023E+02 -6.12214E-07  1.0E-07
  9.750E-04  7.23943E-11  4.81713E-15  1.72023E+02 -6.28325E-07  1.0E-07
  1.000E-03  7.61544E-11  4.81713E-15  1.72023E+02 -6.44436E-07  1.0E-07
  1.250E-03  1.18991E-10  4.81713E-15  1.72023E+02 -8.05545E-07  1.0E-07
  1.500E-03  1.71347E-10  4.81713E-15  1.72023E+02 -9.66654E-07  1.0E-07
  1.750E-03  2.33223E-10  4.81713E-15  1.72023E+02 -1.12776E-06  1.0E-07
  2.000E-03  3.04617E-10  4.81713E-15  1.72023E+02 -1.28887E-06  1.0E-07
  2.250E-03  3.85531E-10  4.81713E-15  1.72023E+02 -1.44998E-06  1.0E-07
  2.500E-03  4.75965E-10  4.81713E-15  1.72023E+02 -1.61109E-06  1.0E-07
  2.750E-03  5.75917E-10  4.81713E-15  1.72023E+02 -1.77220E-06  1.0E-07
  3.000E-03  6.85389E-10  4.81713E-15  1.72023E+02 -1.93331E-06  1.0E-07
  3.250E-03  8.04380E-10  4.81713E-15  1.72023E+02 -2.09442E-06  1.0E-07
  3.500E-03  9.32891E-10  4.81713E-15  1.72023E+02 -2.25553E-06  1.0E-07
  3.750E-03  1.07092E-09  4.81713E-15  1.72023E+02 -2.41664E-06  1.0E-07
  4.000E-03  1.21847E-09  4.81713E-15  1.72023E+02 -2.57775E-06  1.0E-07
  4.250E-03  1.37554E-09  4.81713E-15  1.72023E+02 -2.73885E-06  1.0E-07
  4.500E-03  1.54213E-09  4.81713E-15  1.72023E+02 -2.89996E-06  1.0E-07
  4.750E-03  1.71823E-09  4.81713E-15  1.72023E+02 -3.06107E-06  1.0E-07
  5.000E-03  1.90386E-09  4.81712E-15  1.72023E+02 -3.22218E-06  1.0E-07
  5.250E-03  2.09900E-09  4.81712E-15  1.72023E+02 -3.38329E-06  1.0E-07
  5.500E-03  2.30367E-09  4.81712E-15  1.72023E+02 -3.54440E-06  1.0E-07
  5.750E-03  2.51785E-09  4.81712E-15  1.72023E+02 -3.70551E-06  1.0E-07
  6.000E-03  2.74156E-09  4.81712E-15  1.72023E+02 -3.86662E-06  1.0E-07
  6.250E-03  2.97478E-09  4.81712E-15  1.72022E+02 -4.02773E-06  1.0E-07
  6.500E-03  3.21752E-09  4.81712E-15  1.72022E+02 -4.18884E-06  1.0E-07
  6.750E-03  3.46978E-09  4.81712E-15  1.72022E+02 -4.34995E-06  1.0E-07
  7.000E-03  3.73156E-09  4.81712E-15  1.72022E+02 -4.51106E-06  1.0E-07
  7.250E-03  4.00286E-09  4.81712E-15  1.72022E+02 -4.67217E-06  1.0E-07
  7.500E-03  4.28368E-09  4.81711E-15  1.72022E+02 -4.83328E-06  1.0E-07
  7.750E-03  4.57402E-09  4.81711E-15  1.72022E+02 -4.99439E-06  1.0E-07
  8.000E-03  4.87388E-09  4.81711E-15  1.72022E+02 -5.15550E-06  1.0E-07
  8.250E-03  5.18326E-09  4.81711E-15  1.72022E+02 -5.31661E-06  1.0E-07
  8.500E-03  5.50215E-09  4.81711E-15  1.72022E+02 -5.47772E-06  1.0E-07
  8.750E-03  5.83057E-09  4.81711E-15  1.72022E+02 -5.63883E-06  1.0E-07
  9.000E-03  6.16850E-09  4.81711E-15  1.72022E+02 -5.79994E-06  1.0E-07
  9.250E-03  6.51596E-09  4.81711E-15  1.72022E+02 -5.96105E-06  1.0E-07
  9.500E-03  6.87293E-09  4.81710E-15  1.72022E+02 -6.12216E-06  1.0E-07
  9.750E-03  7.23942E-09  4.81710E-15  1.72022E+02 -6.28327E-06  1.0E-07
  1.000E-02  7.61544E-09  4.81710E-15  1.72022E+02 -6.44438E-06  1.0E-07
  1.250E-02  1.18991E-08  4.81708E-15  1.72021E+02 -8.05550E-06  1.0E-07
  1.500E-02  1.71347E-08  4.81706E-15  1.72020E+02 -9.66662E-06  1.0E-07
  1.750E-02  2.33223E-08  4.81703E-15  1.72019E+02 -1.12778E-05  1.0E-07
  2.000E-02  3.04617E-08  4.81700E-15  1.72018E+02 -1.28889E-05  1.0E-07
  2.250E-02  3.85531E-08  4.81697E-15  1.72017E+02 -1.45001E-05  1.0E-07
  2.500E-02  4.75965E-08  4.81693E-15  1.72016E+02 -1.61113E-05  1.0E-07
  2.750E-02  5.75917E-08  4.81689E-15  1.72014E+02 -1.77225E-05  1.0E-07
  3.000E-02  6.85389E-08  4.81685E-15  1.72013E+02 -1.93337E-05  1.0E-07
  3.250E-02  8.04380E-08  4.81680E-15  1.72011E+02 -2.09450E-05  1.0E-07
  3.500E-02  9.32891E-08  4.81674E-15  1.72009E+02 -2.25563E-05  1.0E-07
  3.750E-02  1.07092E-07  4.81668E-15  1.72007E+02 -2.41676E-05  1.0E-07
  4.000E-02  1.21847E-07  4.81662E-15  1.72005E+02 -2.57790E-05  1.0E-07
  4.250E-02  1.37554E-07  4.81656E-15  1.72002E+02 -2.73904E-05  1.0E-07
  4.500E-02  1.54213E-07  4.81649E-15  1.72000E+02 -2.90018E-05  1.0E-07
  4.750E-02  1.71823E-07  4.81641E-15  1.71997E+02 -3.06133E-05  1.0E-07
  5.000E-02  1.90386E-07  4.81634E-15  1.71994E+02 -3.22248E-05  1.0E-07
  5.250E-02  2.09900E-07  4.81625E-15  1.71992E+02 -3.38364E-05  1.0E-07
  5.500E-02  2.30367E-07  4.81617E-15  1.71989E+02 -3.54480E-05  1.0E-07
  5.750E-02  2.51785E-07  4.81608E-15  1.71985E+02 -3.70596E-05  1.0E-07
  6.000E-02  2.74156E-07  4.81599E-15  1.71982E+02 -3.86714E-05  1.0E-07
  6.250E-02  2.97478E-07  4.81589E-15  1.71979E+02 -4.02831E-05  1.0E-07
  6.500E-02  3.21752E-07  4.81579E-15  1.71975E+02 -4.18949E-05  1.0E-07
  6.750E-02  3.46978E-07  4.81568E-15  1.71971E+02 -4.35068E-05  1.0E-07
  7.000E-02  3.73156E-07  4.81557E-15  1.71967E+02 -4.51188E-05  1.0E-07
  7.250E-02  4.00286E-07  4.81546E-15  1.71963E+02 -4.67308E-05  1.0E-07
  7.500E-02  4.28368E-07  4.81534E-15  1.71959E+02 -4.83428E-05  1.0E-07
  7.750E-02  4.57402E-07  4.81522E-15  1.71955E+02 -4.99550E-05  1.0E-07
  8.000E-02  4.87388E-07  4.81509E-15  1.71950E+02 -5.15672E-05  1.0E-07
  8.250E-02  5.18325E-07  4.81497E-15  1.71946E+02 -5.31795E-05  1.0E-07
  8.500E-02  5.50215E-07  4.81483E-15  1.71941E+02 -5.47918E-05  1.0E-07
  8.750E-02  5.83057E-07  4.81470E-15  1.71936E+02 -5.64043E-05  1.0E-07
  9.000E-02  6.16850E-07  4.81455E-15  1.71931E+02 -5.80168E-05  1.0E-07
  9.250E-02  6.51596E-07  4.81441E-15  1.71926E+02 -5.96294E-05  1.0E-07
  9.500E-02  6.87293E-07  4.81426E-15  1.71920E+02 -6.12420E-05  1.0E-07
  9.750E-02  7.23942E-07  4.81411E-15  1.71915E+02 -6.28548E-05  1.0E-07
  1.000E-01  7.61543E-07  4.81395E-15  1.71909E+02 -6.44676E-05  1.0E-07
  1.250E-01  1.18991E-06  4.81216E-15  1.71845E+02 -8.06014E-05  1.0E-07
  1.500E-01  1.71347E-06  4.80998E-15  1.71768E+02 -9.67465E-05  1.0E-07
  1.750E-01  2.33223E-06  4.80741E-15  1.71676E+02 -1.12905E-04  1.0E-07
  2.000E-01  3.04617E-06  4.80445E-15  1.71570E+02 -1.29079E-04  1.0E-07
  2.250E-01  3.85531E-06  4.80110E-15  1.71450E+02 -1.45271E-04  1.0E-07
  2.500E-01  4.75964E-06  4.79736E-15  1.71317E+02 -1.61483E-04  1.0E-07
  2.750E-01  5.75916E-06  4.79325E-15  1.71170E+02 -1.77718E-04  1.0E-07
  3.000E-01  6.85388E-06  4.78875E-15  1.71009E+02 -1.93976E-04  1.0E-07
  3.250E-01  8.04378E-06  4.78388E-15  1.70836E+02 -2.10262E-04  1.0E-07
  3.500E-01  9.32888E-06  4.77865E-15  1.70649E+02 -2.26576E-04  1.0E-07
  3.750E-01  1.07092E-05  4.77304E-15  1.70448E+02 -2.42920E-04  1.0E-07
  4.000E-01  1.21846E-05  4.76708E-15  1.70235E+02 -2.59298E-04  1.0E-07
  4.250E-01  1.37553E-05  4.76076E-15  1.70010E+02 -2.75710E-04  1.0E-07
  4.500E-01  1.54212E-05  4.75408E-15  1.69771E+02 -2.92159E-04  1.0E-07
  4.750E-01  1.71822E-05  4.74706E-15  1.69521E+02 -3.08646E-04  1.0E-07
  5.000E-01  1.90385E-05  4.73971E-15  1.69258E+02 -3.25175E-04  1.0E-07
  5.250E-01  2.09899E-05  4.73202E-15  1.68983E+02 -3.41746E-04  1.0E-07
  5.500E-01  2.30365E-05  4.72400E-15  1.68697E+02 -3.58362E-04  1.0E-07
  5.750E-01  2.51783E-05  4.71566E-15  1.68399E+02 -3.75023E-04  1.0E-07
  6.000E-01  2.74153E-05  4.70700E-15  1.68090E+02 -3.91733E-04  1.0E-07
  6.250E-01  2.97475E-05  4.69804E-15  1.67770E+02 -4.08493E-04  1.0E-07
  6.500E-01  3.21749E-05  4.68877E-15  1.67439E+02 -4.25305E-04  1.0E-07
  6.750E-01  3.46974E-05  4.67921E-15  1.67098E+02 -4.42169E-04  1.0E-07
  7.000E-01  3.73152E-05  4.66937E-15  1.66746E+02 -4.59089E-04  1.0E-07
  7.250E-01  4.00281E-05  4.65924E-15  1.66385E+02 -4.76065E-04  1.0E-07
  7.500E-01  4.28362E-05  4.64884E-15  1.66013E+02 -4.93099E-04  1.0E-07
  7.750E-01  4.57395E-05  4.63818E-15  1.65633E+02 -5.10193E-04  1.0E-07
  8.000E-01  4.87380E-05  4.62727E-15  1.65243E+02 -5.27347E-04  1.0E-07
  8.250E-01  5.18317E-05  4.61610E-15  1.64844E+02 -5.44564E-04  1.0E-07
  8.500E-01  5.50205E-05  4.60470E-15  1.64437E+02 -5.61844E-04  1.0E-07
  8.750E-01  5.83045E-05  4.59306E-15  1.64021E+02 -5.79190E-04  1.0E-07
  9.000E-01  6.16838E-05  4.58120E-15  1.63597E+02 -5.96601E-04  1.0E-07
  9.250E-01  6.51582E-05  4.56912E-15  1.63166E+02 -6.14080E-04  1.0E-07
  9.500E-01  6.87277E-05  4.55683E-15  1.62727E+02 -6.31628E-04  1.0E-07
  9.750E-01  7.23925E-05  4.54435E-15  1.62282E+02 -6.49245E-04  1.0E-07
  1.000E+00  7.61524E-05  4.53167E-15  1.61829E+02 -6.66933E-04  1.0E-07
  1.100E+00  9.21439E-05  4.47922E-15  1.59956E+02 -7.38410E-04  1.0E-07
  1.200E+00  1.09658E-04  4.42437E-15  1.57997E+02 -8.11086E-04  1.0E-07
  1.300E+00  1.28695E-04  4.36763E-15  1.55971E+02 -8.85001E-04  1.0E-07
  1.400E+00  1.49255E-04  4.30949E-15  1.53895E+02 -9.60183E-04  1.0E-07
  1.500E+00  1.71338E-04  4.25042E-15  1.51785E+02 -1.03665E-03  1.0E-07
  1.600E+00  1.94942E-04  4.19083E-15  1.49657E+02 -1.11439E-03  1.0E-07
  1.700E+00  2.20070E-04  4.13110E-15  1.47524E+02 -1.19342E-03  1.0E-07
  1.800E+00  2.46720E-04  4.07157E-15  1.45399E+02 -1.27370E-03  1.0E-07
  1.900E+00  2.74892E-04  4.01253E-15  1.43290E+02 -1.35523E-03  1.0E-07
  2.000E+00  3.04586E-04  3.95419E-15  1.41207E+02 -1.43796E-03  1.0E-07
  2.100E+00  3.35803E-04  3.89675E-15  1.39156E+02 -1.52188E-03  1.0E-07
  2.200E+00  3.68542E-04  3.84035E-15  1.37142E+02 -1.60694E-03  1.0E-07
  2.300E+00  4.02802E-04  3.78509E-15  1.35168E+02 -1.69313E-03  1.0E-07
  2.400E+00  4.38585E-04  3.73102E-15  1.33237E+02 -1.78041E-03  1.0E-07
  2.500E+00  4.75889E-04  3.67816E-15  1.31349E+02 -1.86876E-03  1.0E-07
  2.600E+00  5.14715E-04  3.62650E-15  1.29505E+02 -1.95817E-03  1.0E-07
  2.700E+00  5.55063E-04  3.57602E-15  1.27702E+02 -2.04862E-03  1.0E-07
  2.800E+00  5.96931E-04  3.52666E-15  1.25939E+02 -2.14012E-03  1.0E-07
  2.900E+00  6.40321E-04  3.47834E-15  1.24214E+02 -2.23265E-03  1.0E-07
  3.000E+00  6.85233E-04  3.43101E-15  1.22524E+02 -2.32623E-03  1.0E-07
  3.100E+00  7.31665E-04  3.38457E-15  1.20865E+02 -2.42088E-03  1.0E-07
  3.200E+00  7.79618E-04  3.33894E-15  1.19236E+02 -2.51662E-03  1.0E-07
  3.300E+00  8.29092E-04  3.29404E-15  1.17632E+02 -2.61346E-03  1.0E-07
  3.400E+00  8.80086E-04  3.24979E-15  1.16052E+02 -2.71144E-03  1.0E-07
  3.500E+00  9.32601E-04  3.20614E-15  1.14493E+02 -2.81057E-03  1.0E-07
  3.600E+00  9.86636E-04  3.16302E-15  1.12953E+02 -2.91089E-03  1.0E-07
  3.700E+00  1.04219E-03  3.12038E-15  1.11431E+02 -3.01243E-03  1.0E-07
  3.800E+00  1.09927E-03  3.07819E-15  1.09924E+02 -3.11521E-03  1.0E-07
  3.900E+00  1.15786E-03  3.03642E-15  1.08433E+02 -3.21924E-03  1.0E-07
  4.000E+00  1.21797E-03  2.99507E-15  1.06956E+02 -3.32455E-03  1.0E-07
  4.100E+00  1.27961E-03  2.95411E-15  1.05493E+02 -3.43114E-03  1.0E-07
  4.200E+00  1.34276E-03  2.91357E-15  1.04045E+02 -3.53902E-03  1.0E-07
  4.300E+00  1.40743E-03  2.87344E-15  1.02612E+02 -3.64820E-03  1.0E-07
  4.400E+00  1.47362E-03  2.83375E-15  1.01195E+02 -3.75866E-03  1.0E-07
  4.500E+00  1.54133E-03  2.79450E-15  9.97935E+01 -3.87041E-03  1.0E-07
  4.600E+00  1.61056E-03  2.75573E-15  9.84089E+01 -3.98342E-03  1.0E-07
  4.700E+00  1.68131E-03  2.71745E-15  9.70420E+01 -4.09768E-03  1.0E-07
  4.800E+00  1.75357E-03  2.67968E-15  9.56932E+01 -4.21318E-03  1.0E-07
  4.900E+00  1.82735E-03  2.64244E-15  9.43634E+01 -4.32990E-03  1.0E-07
  5.000E+00  1.90265E-03  2.60575E-15  9.30529E+01 -4.44781E-03  1.0E-07
  5.100E+00  1.97947E-03  2.56960E-15  9.17622E+01 -4.56690E-03  1.0E-07
  5.200E+00  2.05780E-03  2.53401E-15  9.04913E+01 -4.68715E-03  1.0E-07
  5.300E+00  2.13765E-03  2.49899E-15  8.92404E+01 -4.80855E-03  1.0E-07
  5.400E+00  2.21902E-03  2.46451E-15  8.80093E+01 -4.93109E-03  1.0E-07
  5.500E+00  2.30190E-03  2.43059E-15  8.67978E+01 -5.05475E-03  1.0E-07
  5.600E+00  2.38630E-03  2.39720E-15  8.56054E+01 -5.17953E-03  1.0E-07
  5.700E+00  2.47222E-03  2.36433E-15  8.44316E+01 -5.30544E-03  1.0E-07
  5.800E+00  2.55965E-03  2.33196E-15  8.32759E+01 -5.43246E-03  1.0E-07
  5.900E+00  2.64859E-03  2.30008E-15  8.21375E+01 -5.56061E-03  1.0E-07
  6.000E+00  2.73905E-03  2.26867E-15  8.10158E+01 -5.68989E-03  1.0E-07
  6.100E+00  2.83103E-03  2.23771E-15  7.99100E+01 -5.82031E-03  1.0E-07
  6.200E+00  2.92452E-03  2.20717E-15  7.88196E+01 -5.95188E-03  1.0E-07
  6.300E+00  3.01952E-03  2.17705E-15  7.77439E+01 -6.08459E-03  1.0E-07
  6.400E+00  3.11604E-03  2.14732E-15  7.66823E+01 -6.21847E-03  1.0E-07
  6.500E+00  3.21407E-03  2.11798E-15  7.56343E+01 -6.35350E-03  1.0E-07
  6.600E+00  3.31362E-03  2.08900E-15  7.45996E+01 -6.48970E-03  1.0E-07
  6.700E+00  3.41468E-03  2.06039E-15  7.35777E+01 -6.62706E-03  1.0E-07
  6.800E+00  3.51725E-03  2.03213E-15  7.25685E+01 -6.76558E-03  1.0E-07
  6.900E+00  3.62133E-03  2.00422E-15  7.15719E+01 -6.90524E-03  1.0E-07
  7.000E+00  3.72692E-03  1.97665E-15  7.05876E+01 -7.04605E-03  1.0E-07
  7.100E+00  3.83403E-03  1.94944E-15  6.96157E+01 -7.18797E-03  1.0E-07
  7.200E+00  3.94265E-03  1.92257E-15  6.86563E+01 -7.33099E-03  1.0E-07
  7.300E+00  4.05278E-03  1.89606E-15  6.77094E+01 -7.47510E-03  1.0E-07
  7.400E+00  4.16442E-03  1.86989E-15  6.67750E+01 -7.62026E-03  1.0E-07
  7.500E+00  4.27757E-03  1.84408E-15  6.58533E+01 -7.76644E-03  1.0E-07
  7.600E+00  4.39223E-03  1.81863E-15  6.49444E+01 -7.91363E-03  1.0E-07
  7.700E+00  4.50840E-03  1.79353E-15  6.40482E+01 -8.06180E-03  1.0E-07
  7.800E+00  4.62608E-03  1.76880E-15  6.31649E+01 -8.21091E-03  1.0E-07
  7.900E+00  4.74527E-03  1.74442E-15  6.22944E+01 -8.36093E-03  1.0E-07
  8.000E+00  4.86597E-03  1.72040E-15  6.14367E+01 -8.51185E-03  1.0E-07
  8.100E+00  4.98817E-03  1.69674E-15  6.05918E+01 -8.66364E-03  1.0E-07
  8.200E+00  5.11188E-03  1.67343E-15  5.97593E+01 -8.81627E-03  1.0E-07
  8.300E+00  5.23711E-03  1.65047E-15  5.89393E+01 -8.96972E-03  1.0E-07
  8.400E+00  5.36383E-03  1.62785E-15  5.81315E+01 -9.12397E-03  1.0E-07
  8.500E+00  5.49207E-03  1.60556E-15  5.73357E+01 -9.27900E-03  1.0E-07
  8.600E+00  5.62181E-03  1.58360E-15  5.65515E+01 -9.43478E-03  1.0E-07
  8.700E+00  5.75306E-03  1.56196E-15  5.57788E+01 -9.59130E-03  1.0E-07
  8.800E+00  5.88581E-03  1.54064E-15  5.50172E+01 -9.74853E-03  1.0E-07
  8.900E+00  6.02007E-03  1.51961E-15  5.42664E+01 -9.90646E-03  1.0E-07
  9.000E+00  6.15583E-03  1.49889E-15  5.35263E+01 -1.00651E-02  1.0E-07
  9.100E+00  6.29310E-03  1.47845E-15  5.27964E+01 -1.02243E-02  1.0E-07
  9.200E+00  6.43187E-03  1.45830E-15  5.20767E+01 -1.03841E-02  1.0E-07
  9.300E+00  6.57214E-03  1.43842E-15  5.13669E+01 -1.05446E-02  1.0E-07
  9.400E+00  6.71392E-03  1.41881E-15  5.06668E+01 -1.07056E-02  1.0E-07
  9.500E+00  6.85720E-03  1.39948E-15  4.99762E+01 -1.08671E-02  1.0E-07
  9.600E+00  7.00198E-03  1.38040E-15  4.92950E+01 -1.10290E-02  1.0E-07
  9.700E+00  7.14827E-03  1.36159E-15  4.86232E+01 -1.11914E-02  1.0E-07
  9.800E+00  7.29605E-03  1.34303E-15  4.79606E+01 -1.13542E-02  1.0E-07
  9.900E+00  7.44534E-03  1.32473E-15  4.73071E+01 -1.15173E-02  1.0E-07
  1.000E+01  7.59612E-03  1.30669E-15  4.66628E+01 -1.16807E-02  1.0E-07
  1.025E+01  7.97965E-03  1.26269E-15  4.50916E+01 -1.20901E-02  1.0E-07
  1.050E+01  8.37255E-03  1.22027E-15  4.35766E+01 -1.25001E-02  1.0E-07
  1.075E+01  8.77480E-03  1.17940E-15  4.21170E+01 -1.29099E-02  1.0E-07
  1.100E+01  9.18641E-03  1.14004E-15  4.07117E+01 -1.33187E-02  1.0E-07
  1.125E+01  9.60736E-03  1.10216E-15  3.93589E+01 -1.37256E-02  1.0E-07
  1.150E+01  1.00376E-02  1.06569E-15  3.80566E+01 -1.41296E-02  1.0E-07
  1.175E+01  1.04773E-02  1.03058E-15  3.68026E+01 -1.45297E-02  1.0E-07
  1.200E+01  1.09262E-02  9.96758E-16  3.55949E+01 -1.49247E-02  1.0E-07
  1.225E+01  1.13844E-02  9.64181E-16  3.44315E+01 -1.53133E-02  1.0E-07
  1.250E+01  1.18520E-02  9.32808E-16  3.33112E+01 -1.56941E-02  1.0E-07
  1.275E+01  1.23288E-02  9.02604E-16  3.22326E+01 -1.60656E-02  1.0E-07
  1.300E+01  1.28150E-02  8.73542E-16  3.11947E+01 -1.64263E-02  1.0E-07
  1.325E+01  1.33104E-02  8.45595E-16  3.01967E+01 -1.67749E-02  1.0E-07
  1.350E+01  1.38150E-02  8.18733E-16  2.92375E+01 -1.71099E-02  1.0E-07
  1.375E+01  1.43290E-02  7.92925E-16  2.83159E+01 -1.74299E-02  1.0E-07
  1.400E+01  1.48521E-02  7.68133E-16  2.74305E+01 -1.77335E-02  1.0E-07
  1.425E+01  1.53845E-02  7.44320E-16  2.65802E+01 -1.80191E-02  1.0E-07
  1.450E+01  1.59262E-02  7.21450E-16  2.57635E+01 -1.82849E-02  1.0E-07
