 #
 # Subroutine ELSEPA. Elastic scattering of electrons and positrons
 #                    by neutral atoms and positive ions
 #
 # Projectile: electron
 # Kinetic energy = 2.00000E+04 eV = 7.34987E+02 a.u.
 #
 # Element: Hg,  Z =  80,  atomic weight = 2.00590E+02 g/mol
 #
 # Nuclear model: Fermi distribution
 #                Average radius = 6.26355E-13 cm
 #                Skin thickness = 5.46000E-14 cm
 #
 # Number of electrons = 80
 #
 # Electron density: Read from file z_080.den   
 #                   Number of data points =  763
 #                   Volume integral = 8.00000E+01
 #
 # Furness-McCarthy exchange potential
 #
 # Total elastic cross section = 5.62458E-17 cm**2 = 2.00857E+00 a0**2
 # 1st transport cross section = 1.69002E-18 cm**2 = 6.03519E-02 a0**2
 # 2nd transport cross section = 3.04777E-18 cm**2 = 1.08838E-01 a0**2
 #
 #
 # Differential cross section:                       MU=(1-COS(THETA))/2
 #
 #  THETA        MU          DCS          DCS        Sherman      error
 #  (deg)                 (cm**2/sr)   (a0**2/sr)    function
 #----------------------------------------------------------------------
  0.000E+00  0.00000E+00  8.24412E-15  2.94403E+02  0.00000E+00  1.0E-07
  1.000E-04  7.61557E-13  8.24412E-15  2.94403E+02  1.20379E-09  1.0E-07
  1.250E-04  1.18994E-12  8.24412E-15  2.94403E+02  1.50474E-09  1.0E-07
  1.500E-04  1.71346E-12  8.24412E-15  2.94403E+02  1.80569E-09  1.0E-07
  1.750E-04  2.33225E-12  8.24412E-15  2.94403E+02  2.10664E-09  1.0E-07
  2.000E-04  3.04617E-12  8.24412E-15  2.94403E+02  2.40758E-09  1.0E-07
  2.250E-04  3.85530E-12  8.24412E-15  2.94403E+02  2.70853E-09  1.0E-07
  2.500E-04  4.75964E-12  8.24412E-15  2.94403E+02  3.00948E-09  1.0E-07
  2.750E-04  5.75917E-12  8.24412E-15  2.94403E+02  3.31043E-09  1.0E-07
  3.000E-04  6.85391E-12  8.24412E-15  2.94403E+02  3.61137E-09  1.0E-07
  3.250E-04  8.04379E-12  8.24412E-15  2.94403E+02  3.91232E-09  1.0E-07
  3.500E-04  9.32893E-12  8.24412E-15  2.94403E+02  4.21327E-09  1.0E-07
  3.750E-04  1.07092E-11  8.24412E-15  2.94403E+02  4.51422E-09  1.0E-07
  4.000E-04  1.21847E-11  8.24412E-15  2.94403E+02  4.81517E-09  1.0E-07
  4.250E-04  1.37554E-11  8.24412E-15  2.94403E+02  5.11611E-09  1.0E-07
  4.500E-04  1.54213E-11  8.24412E-15  2.94403E+02  5.41706E-09  1.0E-07
  4.750E-04  1.71823E-11  8.24412E-15  2.94403E+02  5.71801E-09  1.0E-07
  5.000E-04  1.90386E-11  8.24412E-15  2.94403E+02  6.01896E-09  1.0E-07
  5.250E-04  2.09900E-11  8.24412E-15  2.94403E+02  6.31991E-09  1.0E-07
  5.500E-04  2.30367E-11  8.24412E-15  2.94403E+02  6.62085E-09  1.0E-07
  5.750E-04  2.51785E-11  8.24412E-15  2.94403E+02  6.92180E-09  1.0E-07
  6.000E-04  2.74156E-11  8.24412E-15  2.94403E+02  7.22275E-09  1.0E-07
  6.250E-04  2.97478E-11  8.24412E-15  2.94403E+02  7.52370E-09  1.0E-07
  6.500E-04  3.21752E-11  8.24412E-15  2.94403E+02  7.82465E-09  1.0E-07
  6.750E-04  3.46979E-11  8.24412E-15  2.94403E+02  8.12559E-09  1.0E-07
  7.000E-04  3.73157E-11  8.24412E-15  2.94403E+02  8.42654E-09  1.0E-07
  7.250E-04  4.00286E-11  8.24412E-15  2.94403E+02  8.72749E-09  1.0E-07
  7.500E-04  4.28368E-11  8.24412E-15  2.94403E+02  9.02844E-09  1.0E-07
  7.750E-04  4.57402E-11  8.24412E-15  2.94403E+02  9.32939E-09  1.0E-07
  8.000E-04  4.87388E-11  8.24412E-15  2.94403E+02  9.63033E-09  1.0E-07
  8.250E-04  5.18325E-11  8.24412E-15  2.94403E+02  9.93128E-09  1.0E-07
  8.500E-04  5.50215E-11  8.24412E-15  2.94403E+02  1.02322E-08  1.0E-07
  8.750E-04  5.83057E-11  8.24412E-15  2.94403E+02  1.05332E-08  1.0E-07
  9.000E-04  6.16850E-11  8.24412E-15  2.94403E+02  1.08341E-08  1.0E-07
  9.250E-04  6.51595E-11  8.24412E-15  2.94403E+02  1.11351E-08  1.0E-07
  9.500E-04  6.87293E-11  8.24412E-15  2.94403E+02  1.14360E-08  1.0E-07
  9.750E-04  7.23943E-11  8.24412E-15  2.94403E+02  1.17370E-08  1.0E-07
  1.000E-03  7.61544E-11  8.24412E-15  2.94403E+02  1.20379E-08  1.0E-07
  1.250E-03  1.18991E-10  8.24411E-15  2.94403E+02  1.50474E-08  1.0E-07
  1.500E-03  1.71347E-10  8.24411E-15  2.94403E+02  1.80569E-08  1.0E-07
  1.750E-03  2.33223E-10  8.24411E-15  2.94403E+02  2.10664E-08  1.0E-07
  2.000E-03  3.04617E-10  8.24411E-15  2.94402E+02  2.40759E-08  1.0E-07
  2.250E-03  3.85531E-10  8.24410E-15  2.94402E+02  2.70853E-08  1.0E-07
  2.500E-03  4.75965E-10  8.24410E-15  2.94402E+02  3.00948E-08  1.0E-07
  2.750E-03  5.75917E-10  8.24410E-15  2.94402E+02  3.31043E-08  1.0E-07
  3.000E-03  6.85389E-10  8.24409E-15  2.94402E+02  3.61138E-08  1.0E-07
  3.250E-03  8.04380E-10  8.24409E-15  2.94402E+02  3.91233E-08  1.0E-07
  3.500E-03  9.32891E-10  8.24408E-15  2.94401E+02  4.21328E-08  1.0E-07
  3.750E-03  1.07092E-09  8.24407E-15  2.94401E+02  4.51423E-08  1.0E-07
  4.000E-03  1.21847E-09  8.24407E-15  2.94401E+02  4.81518E-08  1.0E-07
  4.250E-03  1.37554E-09  8.24406E-15  2.94401E+02  5.11613E-08  1.0E-07
  4.500E-03  1.54213E-09  8.24406E-15  2.94401E+02  5.41709E-08  1.0E-07
  4.750E-03  1.71823E-09  8.24405E-15  2.94400E+02  5.71804E-08  1.0E-07
  5.000E-03  1.90386E-09  8.24404E-15  2.94400E+02  6.01899E-08  1.0E-07
  5.250E-03  2.09900E-09  8.24403E-15  2.94400E+02  6.31994E-08  1.0E-07
  5.500E-03  2.30367E-09  8.24402E-15  2.94399E+02  6.62090E-08  1.0E-07
  5.750E-03  2.51785E-09  8.24401E-15  2.94399E+02  6.92185E-08  1.0E-07
  6.000E-03  2.74156E-09  8.24401E-15  2.94399E+02  7.22280E-08  1.0E-07
  6.250E-03  2.97478E-09  8.24400E-15  2.94398E+02  7.52376E-08  1.0E-07
  6.500E-03  3.21752E-09  8.24399E-15  2.94398E+02  7.82472E-08  1.0E-07
  6.750E-03  3.46978E-09  8.24397E-15  2.94398E+02  8.12567E-08  1.0E-07
  7.000E-03  3.73156E-09  8.24396E-15  2.94397E+02  8.42663E-08  1.0E-07
  7.250E-03  4.00286E-09  8.24395E-15  2.94397E+02  8.72759E-08  1.0E-07
  7.500E-03  4.28368E-09  8.24394E-15  2.94396E+02  9.02855E-08  1.0E-07
  7.750E-03  4.57402E-09  8.24393E-15  2.94396E+02  9.32950E-08  1.0E-07
  8.000E-03  4.87388E-09  8.24392E-15  2.94396E+02  9.63046E-08  1.0E-07
  8.250E-03  5.18326E-09  8.24390E-15  2.94395E+02  9.93143E-08  1.0E-07
  8.500E-03  5.50215E-09  8.24389E-15  2.94395E+02  1.02324E-07  1.0E-07
  8.750E-03  5.83057E-09  8.24388E-15  2.94394E+02  1.05333E-07  1.0E-07
  9.000E-03  6.16850E-09  8.24386E-15  2.94394E+02  1.08343E-07  1.0E-07
  9.250E-03  6.51596E-09  8.24385E-15  2.94393E+02  1.11353E-07  1.0E-07
  9.500E-03  6.87293E-09  8.24383E-15  2.94393E+02  1.14362E-07  1.0E-07
  9.750E-03  7.23942E-09  8.24382E-15  2.94392E+02  1.17372E-07  1.0E-07
  1.000E-02  7.61544E-09  8.24380E-15  2.94392E+02  1.20382E-07  1.0E-07
  1.250E-02  1.18991E-08  8.24362E-15  2.94385E+02  1.50479E-07  1.0E-07
  1.500E-02  1.71347E-08  8.24340E-15  2.94377E+02  1.80577E-07  1.0E-07
  1.750E-02  2.33223E-08  8.24315E-15  2.94368E+02  2.10677E-07  1.0E-07
  2.000E-02  3.04617E-08  8.24285E-15  2.94357E+02  2.40779E-07  1.0E-07
  2.250E-02  3.85531E-08  8.24251E-15  2.94345E+02  2.70882E-07  1.0E-07
  2.500E-02  4.75965E-08  8.24213E-15  2.94332E+02  3.00988E-07  1.0E-07
  2.750E-02  5.75917E-08  8.24172E-15  2.94317E+02  3.31096E-07  1.0E-07
  3.000E-02  6.85389E-08  8.24126E-15  2.94301E+02  3.61207E-07  1.0E-07
  3.250E-02  8.04380E-08  8.24076E-15  2.94283E+02  3.91321E-07  1.0E-07
  3.500E-02  9.32891E-08  8.24023E-15  2.94264E+02  4.21438E-07  1.0E-07
  3.750E-02  1.07092E-07  8.23965E-15  2.94243E+02  4.51558E-07  1.0E-07
  4.000E-02  1.21847E-07  8.23903E-15  2.94221E+02  4.81682E-07  1.0E-07
  4.250E-02  1.37554E-07  8.23838E-15  2.94198E+02  5.11809E-07  1.0E-07
  4.500E-02  1.54213E-07  8.23769E-15  2.94173E+02  5.41941E-07  1.0E-07
  4.750E-02  1.71823E-07  8.23695E-15  2.94147E+02  5.72077E-07  1.0E-07
  5.000E-02  1.90386E-07  8.23618E-15  2.94119E+02  6.02218E-07  1.0E-07
  5.250E-02  2.09900E-07  8.23536E-15  2.94090E+02  6.32364E-07  1.0E-07
  5.500E-02  2.30367E-07  8.23451E-15  2.94060E+02  6.62515E-07  1.0E-07
  5.750E-02  2.51785E-07  8.23362E-15  2.94028E+02  6.92671E-07  1.0E-07
  6.000E-02  2.74156E-07  8.23269E-15  2.93995E+02  7.22832E-07  1.0E-07
  6.250E-02  2.97478E-07  8.23172E-15  2.93960E+02  7.53000E-07  1.0E-07
  6.500E-02  3.21752E-07  8.23070E-15  2.93924E+02  7.83173E-07  1.0E-07
  6.750E-02  3.46978E-07  8.22965E-15  2.93886E+02  8.13353E-07  1.0E-07
  7.000E-02  3.73156E-07  8.22856E-15  2.93847E+02  8.43539E-07  1.0E-07
  7.250E-02  4.00286E-07  8.22744E-15  2.93807E+02  8.73732E-07  1.0E-07
  7.500E-02  4.28368E-07  8.22627E-15  2.93765E+02  9.03932E-07  1.0E-07
  7.750E-02  4.57402E-07  8.22506E-15  2.93722E+02  9.34139E-07  1.0E-07
  8.000E-02  4.87388E-07  8.22381E-15  2.93678E+02  9.64354E-07  1.0E-07
  8.250E-02  5.18325E-07  8.22253E-15  2.93632E+02  9.94577E-07  1.0E-07
  8.500E-02  5.50215E-07  8.22120E-15  2.93584E+02  1.02481E-06  1.0E-07
  8.750E-02  5.83057E-07  8.21984E-15  2.93536E+02  1.05505E-06  1.0E-07
  9.000E-02  6.16850E-07  8.21843E-15  2.93486E+02  1.08529E-06  1.0E-07
  9.250E-02  6.51596E-07  8.21699E-15  2.93434E+02  1.11555E-06  1.0E-07
  9.500E-02  6.87293E-07  8.21551E-15  2.93381E+02  1.14581E-06  1.0E-07
  9.750E-02  7.23942E-07  8.21399E-15  2.93327E+02  1.17609E-06  1.0E-07
  1.000E-01  7.61543E-07  8.21243E-15  2.93271E+02  1.20637E-06  1.0E-07
  1.250E-01  1.18991E-06  8.19469E-15  2.92638E+02  1.50978E-06  1.0E-07
  1.500E-01  1.71347E-06  8.17309E-15  2.91866E+02  1.81439E-06  1.0E-07
  1.750E-01  2.33223E-06  8.14770E-15  2.90959E+02  2.12045E-06  1.0E-07
  2.000E-01  3.04617E-06  8.11855E-15  2.89919E+02  2.42821E-06  1.0E-07
  2.250E-01  3.85531E-06  8.08573E-15  2.88747E+02  2.73789E-06  1.0E-07
  2.500E-01  4.75964E-06  8.04931E-15  2.87446E+02  3.04974E-06  1.0E-07
  2.750E-01  5.75916E-06  8.00938E-15  2.86020E+02  3.36400E-06  1.0E-07
  3.000E-01  6.85388E-06  7.96601E-15  2.84471E+02  3.68091E-06  1.0E-07
  3.250E-01  8.04378E-06  7.91932E-15  2.82804E+02  4.00070E-06  1.0E-07
  3.500E-01  9.32888E-06  7.86940E-15  2.81021E+02  4.32361E-06  1.0E-07
  3.750E-01  1.07092E-05  7.81637E-15  2.79128E+02  4.64988E-06  1.0E-07
  4.000E-01  1.21846E-05  7.76033E-15  2.77127E+02  4.97974E-06  1.0E-07
  4.250E-01  1.37553E-05  7.70141E-15  2.75023E+02  5.31343E-06  1.0E-07
  4.500E-01  1.54212E-05  7.63974E-15  2.72820E+02  5.65118E-06  1.0E-07
  4.750E-01  1.71822E-05  7.57542E-15  2.70523E+02  5.99322E-06  1.0E-07
  5.000E-01  1.90385E-05  7.50861E-15  2.68137E+02  6.33978E-06  1.0E-07
  5.250E-01  2.09899E-05  7.43942E-15  2.65666E+02  6.69110E-06  1.0E-07
  5.500E-01  2.30365E-05  7.36799E-15  2.63116E+02  7.04740E-06  1.0E-07
  5.750E-01  2.51783E-05  7.29445E-15  2.60490E+02  7.40891E-06  1.0E-07
  6.000E-01  2.74153E-05  7.21895E-15  2.57793E+02  7.77585E-06  1.0E-07
  6.250E-01  2.97475E-05  7.14161E-15  2.55032E+02  8.14845E-06  1.0E-07
  6.500E-01  3.21749E-05  7.06258E-15  2.52209E+02  8.52693E-06  1.0E-07
  6.750E-01  3.46974E-05  6.98199E-15  2.49331E+02  8.91151E-06  1.0E-07
  7.000E-01  3.73152E-05  6.89996E-15  2.46402E+02  9.30242E-06  1.0E-07
  7.250E-01  4.00281E-05  6.81664E-15  2.43427E+02  9.69986E-06  1.0E-07
  7.500E-01  4.28362E-05  6.73215E-15  2.40410E+02  1.01041E-05  1.0E-07
  7.750E-01  4.57395E-05  6.64663E-15  2.37355E+02  1.05152E-05  1.0E-07
  8.000E-01  4.87380E-05  6.56019E-15  2.34269E+02  1.09336E-05  1.0E-07
  8.250E-01  5.18317E-05  6.47296E-15  2.31154E+02  1.13593E-05  1.0E-07
  8.500E-01  5.50205E-05  6.38506E-15  2.28015E+02  1.17927E-05  1.0E-07
  8.750E-01  5.83045E-05  6.29661E-15  2.24856E+02  1.22339E-05  1.0E-07
  9.000E-01  6.16838E-05  6.20771E-15  2.21682E+02  1.26831E-05  1.0E-07
  9.250E-01  6.51582E-05  6.11848E-15  2.18495E+02  1.31405E-05  1.0E-07
  9.500E-01  6.87277E-05  6.02903E-15  2.15300E+02  1.36063E-05  1.0E-07
  9.750E-01  7.23925E-05  5.93944E-15  2.12101E+02  1.40807E-05  1.0E-07
  1.000E+00  7.61524E-05  5.84982E-15  2.08901E+02  1.45640E-05  1.0E-07
  1.100E+00  9.21439E-05  5.49278E-15  1.96151E+02  1.65891E-05  1.0E-07
  1.200E+00  1.09658E-04  5.14181E-15  1.83617E+02  1.87707E-05  1.0E-07
  1.300E+00  1.28695E-04  4.80099E-15  1.71447E+02  2.11203E-05  1.0E-07
  1.400E+00  1.49255E-04  4.47342E-15  1.59749E+02  2.36492E-05  1.0E-07
  1.500E+00  1.71338E-04  4.16124E-15  1.48601E+02  2.63683E-05  1.0E-07
  1.600E+00  1.94942E-04  3.86584E-15  1.38052E+02  2.92876E-05  1.0E-07
  1.700E+00  2.20070E-04  3.58793E-15  1.28127E+02  3.24171E-05  1.0E-07
  1.800E+00  2.46720E-04  3.32772E-15  1.18835E+02  3.57663E-05  1.0E-07
  1.900E+00  2.74892E-04  3.08502E-15  1.10168E+02  3.93442E-05  1.0E-07
  2.000E+00  3.04586E-04  2.85937E-15  1.02110E+02  4.31598E-05  1.0E-07
  2.100E+00  3.35803E-04  2.65007E-15  9.46356E+01  4.72215E-05  1.0E-07
  2.200E+00  3.68542E-04  2.45631E-15  8.77164E+01  5.15374E-05  1.0E-07
  2.300E+00  4.02802E-04  2.27720E-15  8.13205E+01  5.61154E-05  1.0E-07
  2.400E+00  4.38585E-04  2.11182E-15  7.54146E+01  6.09629E-05  1.0E-07
  2.500E+00  4.75889E-04  1.95923E-15  6.99655E+01  6.60872E-05  1.0E-07
  2.600E+00  5.14715E-04  1.81852E-15  6.49406E+01  7.14947E-05  1.0E-07
  2.700E+00  5.55063E-04  1.68880E-15  6.03081E+01  7.71919E-05  1.0E-07
  2.800E+00  5.96931E-04  1.56923E-15  5.60382E+01  8.31844E-05  1.0E-07
  2.900E+00  6.40321E-04  1.45902E-15  5.21025E+01  8.94774E-05  1.0E-07
  3.000E+00  6.85233E-04  1.35742E-15  4.84743E+01  9.60753E-05  1.0E-07
  3.100E+00  7.31665E-04  1.26375E-15  4.51292E+01  1.02982E-04  1.0E-07
  3.200E+00  7.79618E-04  1.17735E-15  4.20440E+01  1.10200E-04  1.0E-07
  3.300E+00  8.29092E-04  1.09765E-15  3.91978E+01  1.17732E-04  1.0E-07
  3.400E+00  8.80086E-04  1.02409E-15  3.65710E+01  1.25579E-04  1.0E-07
  3.500E+00  9.32601E-04  9.56180E-16  3.41458E+01  1.33742E-04  1.0E-07
  3.600E+00  9.86636E-04  8.93449E-16  3.19056E+01  1.42218E-04  1.0E-07
  3.700E+00  1.04219E-03  8.35478E-16  2.98355E+01  1.51007E-04  1.0E-07
  3.800E+00  1.09927E-03  7.81880E-16  2.79215E+01  1.60105E-04  1.0E-07
  3.900E+00  1.15786E-03  7.32301E-16  2.61509E+01  1.69507E-04  1.0E-07
  4.000E+00  1.21797E-03  6.86413E-16  2.45123E+01  1.79209E-04  1.0E-07
  4.100E+00  1.27961E-03  6.43921E-16  2.29948E+01  1.89202E-04  1.0E-07
  4.200E+00  1.34276E-03  6.04550E-16  2.15889E+01  1.99479E-04  1.0E-07
  4.300E+00  1.40743E-03  5.68052E-16  2.02855E+01  2.10031E-04  1.0E-07
  4.400E+00  1.47362E-03  5.34195E-16  1.90765E+01  2.20845E-04  1.0E-07
  4.500E+00  1.54133E-03  5.02772E-16  1.79543E+01  2.31911E-04  1.0E-07
  4.600E+00  1.61056E-03  4.73588E-16  1.69121E+01  2.43215E-04  1.0E-07
  4.700E+00  1.68131E-03  4.46468E-16  1.59437E+01  2.54743E-04  1.0E-07
  4.800E+00  1.75357E-03  4.21250E-16  1.50431E+01  2.66478E-04  1.0E-07
  4.900E+00  1.82735E-03  3.97785E-16  1.42052E+01  2.78404E-04  1.0E-07
  5.000E+00  1.90265E-03  3.75937E-16  1.34250E+01  2.90503E-04  1.0E-07
  5.100E+00  1.97947E-03  3.55581E-16  1.26980E+01  3.02757E-04  1.0E-07
  5.200E+00  2.05780E-03  3.36602E-16  1.20203E+01  3.15147E-04  1.0E-07
  5.300E+00  2.13765E-03  3.18894E-16  1.13879E+01  3.27651E-04  1.0E-07
  5.400E+00  2.21902E-03  3.02360E-16  1.07975E+01  3.40250E-04  1.0E-07
  5.500E+00  2.30190E-03  2.86912E-16  1.02458E+01  3.52922E-04  1.0E-07
  5.600E+00  2.38630E-03  2.72468E-16  9.73000E+00  3.65646E-04  1.0E-07
  5.700E+00  2.47222E-03  2.58951E-16  9.24733E+00  3.78398E-04  1.0E-07
  5.800E+00  2.55965E-03  2.46294E-16  8.79533E+00  3.91158E-04  1.0E-07
  5.900E+00  2.64859E-03  2.34433E-16  8.37174E+00  4.03902E-04  1.0E-07
  6.000E+00  2.73905E-03  2.23308E-16  7.97446E+00  4.16608E-04  1.0E-07
  6.100E+00  2.83103E-03  2.12866E-16  7.60157E+00  4.29253E-04  1.0E-07
  6.200E+00  2.92452E-03  2.03057E-16  7.25129E+00  4.41816E-04  1.0E-07
  6.300E+00  3.01952E-03  1.93836E-16  6.92200E+00  4.54273E-04  1.0E-07
  6.400E+00  3.11604E-03  1.85160E-16  6.61219E+00  4.66602E-04  1.0E-07
  6.500E+00  3.21407E-03  1.76991E-16  6.32047E+00  4.78782E-04  1.0E-07
  6.600E+00  3.31362E-03  1.69293E-16  6.04557E+00  4.90790E-04  1.0E-07
  6.700E+00  3.41468E-03  1.62033E-16  5.78631E+00  5.02606E-04  1.0E-07
  6.800E+00  3.51725E-03  1.55181E-16  5.54162E+00  5.14209E-04  1.0E-07
  6.900E+00  3.62133E-03  1.48709E-16  5.31048E+00  5.25576E-04  1.0E-07
  7.000E+00  3.72692E-03  1.42590E-16  5.09198E+00  5.36689E-04  1.0E-07
  7.100E+00  3.83403E-03  1.36801E-16  4.88526E+00  5.47527E-04  1.0E-07
  7.200E+00  3.94265E-03  1.31320E-16  4.68954E+00  5.58070E-04  1.0E-07
  7.300E+00  4.05278E-03  1.26127E-16  4.50409E+00  5.68298E-04  1.0E-07
  7.400E+00  4.16442E-03  1.21203E-16  4.32825E+00  5.78192E-04  1.0E-07
  7.500E+00  4.27757E-03  1.16531E-16  4.16138E+00  5.87733E-04  1.0E-07
  7.600E+00  4.39223E-03  1.12093E-16  4.00292E+00  5.96902E-04  1.0E-07
  7.700E+00  4.50840E-03  1.07876E-16  3.85234E+00  6.05680E-04  1.0E-07
  7.800E+00  4.62608E-03  1.03866E-16  3.70914E+00  6.14048E-04  1.0E-07
  7.900E+00  4.74527E-03  1.00050E-16  3.57286E+00  6.21989E-04  1.0E-07
  8.000E+00  4.86597E-03  9.64166E-17  3.44310E+00  6.29483E-04  1.0E-07
  8.100E+00  4.98817E-03  9.29541E-17  3.31945E+00  6.36513E-04  1.0E-07
  8.200E+00  5.11188E-03  8.96527E-17  3.20156E+00  6.43060E-04  1.0E-07
  8.300E+00  5.23711E-03  8.65029E-17  3.08908E+00  6.49105E-04  1.0E-07
  8.400E+00  5.36383E-03  8.34960E-17  2.98170E+00  6.54630E-04  1.0E-07
  8.500E+00  5.49207E-03  8.06239E-17  2.87913E+00  6.59617E-04  1.0E-07
  8.600E+00  5.62181E-03  7.78789E-17  2.78111E+00  6.64047E-04  1.0E-07
  8.700E+00  5.75306E-03  7.52540E-17  2.68737E+00  6.67902E-04  1.0E-07
  8.800E+00  5.88581E-03  7.27427E-17  2.59769E+00  6.71163E-04  1.0E-07
  8.900E+00  6.02007E-03  7.03387E-17  2.51184E+00  6.73811E-04  1.0E-07
  9.000E+00  6.15583E-03  6.80365E-17  2.42963E+00  6.75827E-04  1.0E-07
  9.100E+00  6.29310E-03  6.58305E-17  2.35085E+00  6.77193E-04  1.0E-07
  9.200E+00  6.43187E-03  6.37159E-17  2.27534E+00  6.77889E-04  1.0E-07
  9.300E+00  6.57214E-03  6.16879E-17  2.20292E+00  6.77896E-04  1.0E-07
  9.400E+00  6.71392E-03  5.97423E-17  2.13343E+00  6.77194E-04  1.0E-07
  9.500E+00  6.85720E-03  5.78748E-17  2.06675E+00  6.75765E-04  1.0E-07
  9.600E+00  7.00198E-03  5.60817E-17  2.00271E+00  6.73589E-04  1.0E-07
  9.700E+00  7.14827E-03  5.43593E-17  1.94121E+00  6.70647E-04  1.0E-07
  9.800E+00  7.29605E-03  5.27043E-17  1.88210E+00  6.66919E-04  1.0E-07
  9.900E+00  7.44534E-03  5.11134E-17  1.82529E+00  6.62385E-04  1.0E-07
  1.000E+01  7.59612E-03  4.95837E-17  1.77067E+00  6.57027E-04  1.0E-07
  1.025E+01  7.97965E-03  4.60089E-17  1.64301E+00  6.39897E-04  1.0E-07
  1.050E+01  8.37255E-03  4.27591E-17  1.52696E+00  6.17196E-04  1.0E-07
  1.075E+01  8.77480E-03  3.97998E-17  1.42128E+00  5.88635E-04  1.0E-07
  1.100E+01  9.18641E-03  3.71006E-17  1.32489E+00  5.53939E-04  1.0E-07
  1.125E+01  9.60736E-03  3.46351E-17  1.23684E+00  5.12848E-04  1.0E-07
  1.150E+01  1.00376E-02  3.23798E-17  1.15630E+00  4.65126E-04  1.0E-07
  1.175E+01  1.04773E-02  3.03142E-17  1.08254E+00  4.10561E-04  1.0E-07
  1.200E+01  1.09262E-02  2.84199E-17  1.01489E+00  3.48971E-04  1.0E-07
  1.225E+01  1.13844E-02  2.66805E-17  9.52780E-01  2.80206E-04  1.0E-07
  1.250E+01  1.18520E-02  2.50816E-17  8.95680E-01  2.04154E-04  1.0E-07
  1.275E+01  1.23288E-02  2.36099E-17  8.43126E-01  1.20741E-04  1.0E-07
  1.300E+01  1.28150E-02  2.22538E-17  7.94699E-01  2.99321E-05  1.0E-07
  1.325E+01  1.33104E-02  2.10027E-17  7.50022E-01 -6.82669E-05  1.0E-07
  1.350E+01  1.38150E-02  1.98471E-17  7.08753E-01 -1.73808E-04  1.0E-07
  1.375E+01  1.43290E-02  1.87784E-17  6.70587E-01 -2.86603E-04  1.0E-07
  1.400E+01  1.48521E-02  1.77887E-17  6.35246E-01 -4.06525E-04  1.0E-07
  1.425E+01  1.53845E-02  1.68711E-17  6.02480E-01 -5.33408E-04  1.0E-07
  1.450E+01  1.59262E-02  1.60193E-17  5.72060E-01 -6.67054E-04  1.0E-07
  1.475E+01  1.64770E-02  1.52275E-17  5.43782E-01 -8.07228E-04  1.0E-07
  1.500E+01  1.70371E-02  1.44904E-17  5.17460E-01 -9.53669E-04  1.0E-07
  1.525E+01  1.76063E-02  1.38033E-17  4.92925E-01 -1.10609E-03  1.0E-07
  1.550E+01  1.81848E-02  1.31620E-17  4.70023E-01 -1.26418E-03  1.0E-07
