 #
 # Subroutine ELSEPA. Elastic scattering of electrons and positrons
 #                    by neutral atoms and positive ions
 #
 # Projectile: electron
 # Kinetic energy = 9.00000E+02 eV = 3.30744E+01 a.u.
 #
 # Element:  C,  Z =   6,  atomic weight = 1.20107E+01 g/mol
 #
 # Nuclear model: Fermi distribution
 #                Average radius = 2.45042E-13 cm
 #                Skin thickness = 5.46000E-14 cm
 #
 # Number of electrons =  6
 #
 # Electron density: Read from file z_006.den   
 #                   Number of data points =  725
 #                   Volume integral = 6.00000E+00
 #
 # Furness-McCarthy exchange potential
 #
 # Total elastic cross section = 5.93215E-17 cm**2 = 2.11841E+00 a0**2
 # 1st transport cross section = 4.65885E-18 cm**2 = 1.66370E-01 a0**2
 # 2nd transport cross section = 9.62124E-18 cm**2 = 3.43581E-01 a0**2
 #
 #
 # Differential cross section:                       MU=(1-COS(THETA))/2
 #
 #  THETA        MU          DCS          DCS        Sherman      error
 #  (deg)                 (cm**2/sr)   (a0**2/sr)    function
 #----------------------------------------------------------------------
  0.000E+00  0.00000E+00  5.45535E-16  1.94814E+01  0.00000E+00  1.0E-07
  1.000E-04  7.61557E-13  5.45535E-16  1.94814E+01  1.24858E-10  1.0E-07
  1.250E-04  1.18994E-12  5.45535E-16  1.94814E+01  1.56073E-10  1.0E-07
  1.500E-04  1.71346E-12  5.45535E-16  1.94814E+01  1.87287E-10  1.0E-07
  1.750E-04  2.33225E-12  5.45535E-16  1.94814E+01  2.18502E-10  1.0E-07
  2.000E-04  3.04617E-12  5.45535E-16  1.94814E+01  2.49716E-10  1.0E-07
  2.250E-04  3.85530E-12  5.45535E-16  1.94814E+01  2.80931E-10  1.0E-07
  2.500E-04  4.75964E-12  5.45535E-16  1.94814E+01  3.12145E-10  1.0E-07
  2.750E-04  5.75917E-12  5.45535E-16  1.94814E+01  3.43360E-10  1.0E-07
  3.000E-04  6.85391E-12  5.45535E-16  1.94814E+01  3.74574E-10  1.0E-07
  3.250E-04  8.04379E-12  5.45535E-16  1.94814E+01  4.05789E-10  1.0E-07
  3.500E-04  9.32893E-12  5.45535E-16  1.94814E+01  4.37003E-10  1.0E-07
  3.750E-04  1.07092E-11  5.45535E-16  1.94814E+01  4.68218E-10  1.0E-07
  4.000E-04  1.21847E-11  5.45535E-16  1.94814E+01  4.99433E-10  1.0E-07
  4.250E-04  1.37554E-11  5.45535E-16  1.94814E+01  5.30647E-10  1.0E-07
  4.500E-04  1.54213E-11  5.45535E-16  1.94814E+01  5.61862E-10  1.0E-07
  4.750E-04  1.71823E-11  5.45535E-16  1.94814E+01  5.93076E-10  1.0E-07
  5.000E-04  1.90386E-11  5.45535E-16  1.94814E+01  6.24291E-10  1.0E-07
  5.250E-04  2.09900E-11  5.45535E-16  1.94814E+01  6.55505E-10  1.0E-07
  5.500E-04  2.30367E-11  5.45535E-16  1.94814E+01  6.86720E-10  1.0E-07
  5.750E-04  2.51785E-11  5.45535E-16  1.94814E+01  7.17934E-10  1.0E-07
  6.000E-04  2.74156E-11  5.45535E-16  1.94814E+01  7.49149E-10  1.0E-07
  6.250E-04  2.97478E-11  5.45535E-16  1.94814E+01  7.80363E-10  1.0E-07
  6.500E-04  3.21752E-11  5.45535E-16  1.94814E+01  8.11578E-10  1.0E-07
  6.750E-04  3.46979E-11  5.45535E-16  1.94814E+01  8.42792E-10  1.0E-07
  7.000E-04  3.73157E-11  5.45535E-16  1.94814E+01  8.74007E-10  1.0E-07
  7.250E-04  4.00286E-11  5.45535E-16  1.94814E+01  9.05221E-10  1.0E-07
  7.500E-04  4.28368E-11  5.45535E-16  1.94814E+01  9.36436E-10  1.0E-07
  7.750E-04  4.57402E-11  5.45535E-16  1.94814E+01  9.67651E-10  1.0E-07
  8.000E-04  4.87388E-11  5.45535E-16  1.94814E+01  9.98865E-10  1.0E-07
  8.250E-04  5.18325E-11  5.45535E-16  1.94814E+01  1.03008E-09  1.0E-07
  8.500E-04  5.50215E-11  5.45535E-16  1.94814E+01  1.06129E-09  1.0E-07
  8.750E-04  5.83057E-11  5.45535E-16  1.94814E+01  1.09251E-09  1.0E-07
  9.000E-04  6.16850E-11  5.45535E-16  1.94814E+01  1.12372E-09  1.0E-07
  9.250E-04  6.51595E-11  5.45535E-16  1.94814E+01  1.15494E-09  1.0E-07
  9.500E-04  6.87293E-11  5.45535E-16  1.94814E+01  1.18615E-09  1.0E-07
  9.750E-04  7.23943E-11  5.45535E-16  1.94814E+01  1.21737E-09  1.0E-07
  1.000E-03  7.61544E-11  5.45535E-16  1.94814E+01  1.24858E-09  1.0E-07
  1.250E-03  1.18991E-10  5.45535E-16  1.94814E+01  1.56073E-09  1.0E-07
  1.500E-03  1.71347E-10  5.45535E-16  1.94814E+01  1.87287E-09  1.0E-07
  1.750E-03  2.33223E-10  5.45535E-16  1.94814E+01  2.18502E-09  1.0E-07
  2.000E-03  3.04617E-10  5.45535E-16  1.94814E+01  2.49716E-09  1.0E-07
  2.250E-03  3.85531E-10  5.45534E-16  1.94814E+01  2.80931E-09  1.0E-07
  2.500E-03  4.75965E-10  5.45534E-16  1.94814E+01  3.12145E-09  1.0E-07
  2.750E-03  5.75917E-10  5.45534E-16  1.94814E+01  3.43360E-09  1.0E-07
  3.000E-03  6.85389E-10  5.45534E-16  1.94814E+01  3.74574E-09  1.0E-07
  3.250E-03  8.04380E-10  5.45534E-16  1.94814E+01  4.05789E-09  1.0E-07
  3.500E-03  9.32891E-10  5.45534E-16  1.94814E+01  4.37003E-09  1.0E-07
  3.750E-03  1.07092E-09  5.45534E-16  1.94814E+01  4.68218E-09  1.0E-07
  4.000E-03  1.21847E-09  5.45534E-16  1.94814E+01  4.99433E-09  1.0E-07
  4.250E-03  1.37554E-09  5.45534E-16  1.94814E+01  5.30647E-09  1.0E-07
  4.500E-03  1.54213E-09  5.45534E-16  1.94814E+01  5.61862E-09  1.0E-07
  4.750E-03  1.71823E-09  5.45534E-16  1.94814E+01  5.93076E-09  1.0E-07
  5.000E-03  1.90386E-09  5.45534E-16  1.94814E+01  6.24291E-09  1.0E-07
  5.250E-03  2.09900E-09  5.45534E-16  1.94814E+01  6.55505E-09  1.0E-07
  5.500E-03  2.30367E-09  5.45534E-16  1.94814E+01  6.86720E-09  1.0E-07
  5.750E-03  2.51785E-09  5.45534E-16  1.94814E+01  7.17934E-09  1.0E-07
  6.000E-03  2.74156E-09  5.45534E-16  1.94814E+01  7.49149E-09  1.0E-07
  6.250E-03  2.97478E-09  5.45534E-16  1.94814E+01  7.80364E-09  1.0E-07
  6.500E-03  3.21752E-09  5.45534E-16  1.94814E+01  8.11578E-09  1.0E-07
  6.750E-03  3.46978E-09  5.45534E-16  1.94814E+01  8.42793E-09  1.0E-07
  7.000E-03  3.73156E-09  5.45534E-16  1.94814E+01  8.74007E-09  1.0E-07
  7.250E-03  4.00286E-09  5.45534E-16  1.94814E+01  9.05222E-09  1.0E-07
  7.500E-03  4.28368E-09  5.45534E-16  1.94814E+01  9.36436E-09  1.0E-07
  7.750E-03  4.57402E-09  5.45534E-16  1.94814E+01  9.67651E-09  1.0E-07
  8.000E-03  4.87388E-09  5.45534E-16  1.94814E+01  9.98865E-09  1.0E-07
  8.250E-03  5.18326E-09  5.45534E-16  1.94814E+01  1.03008E-08  1.0E-07
  8.500E-03  5.50215E-09  5.45534E-16  1.94814E+01  1.06129E-08  1.0E-07
  8.750E-03  5.83057E-09  5.45534E-16  1.94814E+01  1.09251E-08  1.0E-07
  9.000E-03  6.16850E-09  5.45534E-16  1.94814E+01  1.12372E-08  1.0E-07
  9.250E-03  6.51596E-09  5.45534E-16  1.94814E+01  1.15494E-08  1.0E-07
  9.500E-03  6.87293E-09  5.45534E-16  1.94814E+01  1.18615E-08  1.0E-07
  9.750E-03  7.23942E-09  5.45534E-16  1.94814E+01  1.21737E-08  1.0E-07
  1.000E-02  7.61544E-09  5.45534E-16  1.94814E+01  1.24858E-08  1.0E-07
  1.250E-02  1.18991E-08  5.45533E-16  1.94813E+01  1.56073E-08  1.0E-07
  1.500E-02  1.71347E-08  5.45533E-16  1.94813E+01  1.87287E-08  1.0E-07
  1.750E-02  2.33223E-08  5.45532E-16  1.94813E+01  2.18502E-08  1.0E-07
  2.000E-02  3.04617E-08  5.45531E-16  1.94813E+01  2.49717E-08  1.0E-07
  2.250E-02  3.85531E-08  5.45530E-16  1.94812E+01  2.80932E-08  1.0E-07
  2.500E-02  4.75965E-08  5.45529E-16  1.94812E+01  3.12146E-08  1.0E-07
  2.750E-02  5.75917E-08  5.45528E-16  1.94812E+01  3.43361E-08  1.0E-07
  3.000E-02  6.85389E-08  5.45527E-16  1.94811E+01  3.74576E-08  1.0E-07
  3.250E-02  8.04380E-08  5.45525E-16  1.94811E+01  4.05791E-08  1.0E-07
  3.500E-02  9.32891E-08  5.45524E-16  1.94810E+01  4.37007E-08  1.0E-07
  3.750E-02  1.07092E-07  5.45522E-16  1.94810E+01  4.68222E-08  1.0E-07
  4.000E-02  1.21847E-07  5.45521E-16  1.94809E+01  4.99437E-08  1.0E-07
  4.250E-02  1.37554E-07  5.45519E-16  1.94808E+01  5.30653E-08  1.0E-07
  4.500E-02  1.54213E-07  5.45517E-16  1.94808E+01  5.61868E-08  1.0E-07
  4.750E-02  1.71823E-07  5.45515E-16  1.94807E+01  5.93084E-08  1.0E-07
  5.000E-02  1.90386E-07  5.45513E-16  1.94806E+01  6.24300E-08  1.0E-07
  5.250E-02  2.09900E-07  5.45510E-16  1.94805E+01  6.55516E-08  1.0E-07
  5.500E-02  2.30367E-07  5.45508E-16  1.94804E+01  6.86732E-08  1.0E-07
  5.750E-02  2.51785E-07  5.45506E-16  1.94804E+01  7.17948E-08  1.0E-07
  6.000E-02  2.74156E-07  5.45503E-16  1.94803E+01  7.49165E-08  1.0E-07
  6.250E-02  2.97478E-07  5.45500E-16  1.94802E+01  7.80381E-08  1.0E-07
  6.500E-02  3.21752E-07  5.45498E-16  1.94801E+01  8.11598E-08  1.0E-07
  6.750E-02  3.46978E-07  5.45495E-16  1.94800E+01  8.42815E-08  1.0E-07
  7.000E-02  3.73156E-07  5.45492E-16  1.94799E+01  8.74032E-08  1.0E-07
  7.250E-02  4.00286E-07  5.45489E-16  1.94797E+01  9.05249E-08  1.0E-07
  7.500E-02  4.28368E-07  5.45485E-16  1.94796E+01  9.36467E-08  1.0E-07
  7.750E-02  4.57402E-07  5.45482E-16  1.94795E+01  9.67684E-08  1.0E-07
  8.000E-02  4.87388E-07  5.45479E-16  1.94794E+01  9.98902E-08  1.0E-07
  8.250E-02  5.18325E-07  5.45475E-16  1.94793E+01  1.03012E-07  1.0E-07
  8.500E-02  5.50215E-07  5.45471E-16  1.94791E+01  1.06134E-07  1.0E-07
  8.750E-02  5.83057E-07  5.45468E-16  1.94790E+01  1.09256E-07  1.0E-07
  9.000E-02  6.16850E-07  5.45464E-16  1.94789E+01  1.12378E-07  1.0E-07
  9.250E-02  6.51596E-07  5.45460E-16  1.94787E+01  1.15500E-07  1.0E-07
  9.500E-02  6.87293E-07  5.45456E-16  1.94786E+01  1.18621E-07  1.0E-07
  9.750E-02  7.23942E-07  5.45451E-16  1.94784E+01  1.21743E-07  1.0E-07
  1.000E-01  7.61543E-07  5.45447E-16  1.94783E+01  1.24865E-07  1.0E-07
  1.250E-01  1.18991E-06  5.45398E-16  1.94765E+01  1.56087E-07  1.0E-07
  1.500E-01  1.71347E-06  5.45338E-16  1.94744E+01  1.87312E-07  1.0E-07
  1.750E-01  2.33223E-06  5.45267E-16  1.94718E+01  2.18541E-07  1.0E-07
  2.000E-01  3.04617E-06  5.45185E-16  1.94689E+01  2.49775E-07  1.0E-07
  2.250E-01  3.85531E-06  5.45092E-16  1.94656E+01  2.81014E-07  1.0E-07
  2.500E-01  4.75964E-06  5.44988E-16  1.94619E+01  3.12259E-07  1.0E-07
  2.750E-01  5.75916E-06  5.44873E-16  1.94578E+01  3.43511E-07  1.0E-07
  3.000E-01  6.85388E-06  5.44747E-16  1.94533E+01  3.74771E-07  1.0E-07
  3.250E-01  8.04378E-06  5.44611E-16  1.94484E+01  4.06039E-07  1.0E-07
  3.500E-01  9.32888E-06  5.44464E-16  1.94431E+01  4.37316E-07  1.0E-07
  3.750E-01  1.07092E-05  5.44305E-16  1.94375E+01  4.68602E-07  1.0E-07
  4.000E-01  1.21846E-05  5.44136E-16  1.94315E+01  4.99899E-07  1.0E-07
  4.250E-01  1.37553E-05  5.43956E-16  1.94250E+01  5.31206E-07  1.0E-07
  4.500E-01  1.54212E-05  5.43766E-16  1.94182E+01  5.62525E-07  1.0E-07
  4.750E-01  1.71822E-05  5.43564E-16  1.94110E+01  5.93856E-07  1.0E-07
  5.000E-01  1.90385E-05  5.43352E-16  1.94035E+01  6.25201E-07  1.0E-07
  5.250E-01  2.09899E-05  5.43129E-16  1.93955E+01  6.56559E-07  1.0E-07
  5.500E-01  2.30365E-05  5.42895E-16  1.93871E+01  6.87931E-07  1.0E-07
  5.750E-01  2.51783E-05  5.42651E-16  1.93784E+01  7.19318E-07  1.0E-07
  6.000E-01  2.74153E-05  5.42396E-16  1.93693E+01  7.50721E-07  1.0E-07
  6.250E-01  2.97475E-05  5.42130E-16  1.93598E+01  7.82140E-07  1.0E-07
  6.500E-01  3.21749E-05  5.41853E-16  1.93499E+01  8.13577E-07  1.0E-07
  6.750E-01  3.46974E-05  5.41566E-16  1.93397E+01  8.45031E-07  1.0E-07
  7.000E-01  3.73152E-05  5.41268E-16  1.93290E+01  8.76503E-07  1.0E-07
  7.250E-01  4.00281E-05  5.40960E-16  1.93180E+01  9.07995E-07  1.0E-07
  7.500E-01  4.28362E-05  5.40641E-16  1.93066E+01  9.39506E-07  1.0E-07
  7.750E-01  4.57395E-05  5.40312E-16  1.92949E+01  9.71037E-07  1.0E-07
  8.000E-01  4.87380E-05  5.39972E-16  1.92827E+01  1.00259E-06  1.0E-07
  8.250E-01  5.18317E-05  5.39621E-16  1.92702E+01  1.03416E-06  1.0E-07
  8.500E-01  5.50205E-05  5.39260E-16  1.92573E+01  1.06576E-06  1.0E-07
  8.750E-01  5.83045E-05  5.38889E-16  1.92441E+01  1.09738E-06  1.0E-07
  9.000E-01  6.16838E-05  5.38507E-16  1.92304E+01  1.12903E-06  1.0E-07
  9.250E-01  6.51582E-05  5.38115E-16  1.92164E+01  1.16069E-06  1.0E-07
  9.500E-01  6.87277E-05  5.37713E-16  1.92021E+01  1.19239E-06  1.0E-07
  9.750E-01  7.23925E-05  5.37300E-16  1.91873E+01  1.22411E-06  1.0E-07
  1.000E+00  7.61524E-05  5.36877E-16  1.91722E+01  1.25585E-06  1.0E-07
  1.100E+00  9.21439E-05  5.35084E-16  1.91082E+01  1.38311E-06  1.0E-07
  1.200E+00  1.09658E-04  5.33129E-16  1.90384E+01  1.51085E-06  1.0E-07
  1.300E+00  1.28695E-04  5.31016E-16  1.89629E+01  1.63911E-06  1.0E-07
  1.400E+00  1.49255E-04  5.28746E-16  1.88819E+01  1.76793E-06  1.0E-07
  1.500E+00  1.71338E-04  5.26324E-16  1.87954E+01  1.89736E-06  1.0E-07
  1.600E+00  1.94942E-04  5.23751E-16  1.87035E+01  2.02743E-06  1.0E-07
  1.700E+00  2.20070E-04  5.21032E-16  1.86064E+01  2.15819E-06  1.0E-07
  1.800E+00  2.46720E-04  5.18170E-16  1.85042E+01  2.28969E-06  1.0E-07
  1.900E+00  2.74892E-04  5.15168E-16  1.83970E+01  2.42195E-06  1.0E-07
  2.000E+00  3.04586E-04  5.12030E-16  1.82849E+01  2.55503E-06  1.0E-07
  2.100E+00  3.35803E-04  5.08760E-16  1.81681E+01  2.68896E-06  1.0E-07
  2.200E+00  3.68542E-04  5.05362E-16  1.80468E+01  2.82378E-06  1.0E-07
  2.300E+00  4.02802E-04  5.01839E-16  1.79210E+01  2.95954E-06  1.0E-07
  2.400E+00  4.38585E-04  4.98196E-16  1.77909E+01  3.09627E-06  1.0E-07
  2.500E+00  4.75889E-04  4.94438E-16  1.76567E+01  3.23402E-06  1.0E-07
  2.600E+00  5.14715E-04  4.90568E-16  1.75185E+01  3.37282E-06  1.0E-07
  2.700E+00  5.55063E-04  4.86592E-16  1.73765E+01  3.51270E-06  1.0E-07
  2.800E+00  5.96931E-04  4.82512E-16  1.72308E+01  3.65372E-06  1.0E-07
  2.900E+00  6.40321E-04  4.78335E-16  1.70817E+01  3.79591E-06  1.0E-07
  3.000E+00  6.85233E-04  4.74064E-16  1.69291E+01  3.93930E-06  1.0E-07
  3.100E+00  7.31665E-04  4.69704E-16  1.67734E+01  4.08393E-06  1.0E-07
  3.200E+00  7.79618E-04  4.65260E-16  1.66147E+01  4.22983E-06  1.0E-07
  3.300E+00  8.29092E-04  4.60737E-16  1.64532E+01  4.37705E-06  1.0E-07
  3.400E+00  8.80086E-04  4.56138E-16  1.62890E+01  4.52562E-06  1.0E-07
  3.500E+00  9.32601E-04  4.51468E-16  1.61222E+01  4.67557E-06  1.0E-07
  3.600E+00  9.86636E-04  4.46733E-16  1.59531E+01  4.82694E-06  1.0E-07
  3.700E+00  1.04219E-03  4.41937E-16  1.57819E+01  4.97976E-06  1.0E-07
  3.800E+00  1.09927E-03  4.37084E-16  1.56085E+01  5.13406E-06  1.0E-07
  3.900E+00  1.15786E-03  4.32178E-16  1.54334E+01  5.28988E-06  1.0E-07
  4.000E+00  1.21797E-03  4.27225E-16  1.52565E+01  5.44725E-06  1.0E-07
  4.100E+00  1.27961E-03  4.22229E-16  1.50781E+01  5.60619E-06  1.0E-07
  4.200E+00  1.34276E-03  4.17193E-16  1.48982E+01  5.76674E-06  1.0E-07
  4.300E+00  1.40743E-03  4.12123E-16  1.47172E+01  5.92893E-06  1.0E-07
  4.400E+00  1.47362E-03  4.07023E-16  1.45350E+01  6.09279E-06  1.0E-07
  4.500E+00  1.54133E-03  4.01896E-16  1.43520E+01  6.25834E-06  1.0E-07
  4.600E+00  1.61056E-03  3.96746E-16  1.41681E+01  6.42561E-06  1.0E-07
  4.700E+00  1.68131E-03  3.91579E-16  1.39835E+01  6.59464E-06  1.0E-07
  4.800E+00  1.75357E-03  3.86397E-16  1.37985E+01  6.76543E-06  1.0E-07
  4.900E+00  1.82735E-03  3.81204E-16  1.36130E+01  6.93802E-06  1.0E-07
  5.000E+00  1.90265E-03  3.76005E-16  1.34274E+01  7.11244E-06  1.0E-07
  5.100E+00  1.97947E-03  3.70802E-16  1.32416E+01  7.28870E-06  1.0E-07
  5.200E+00  2.05780E-03  3.65599E-16  1.30558E+01  7.46683E-06  1.0E-07
  5.300E+00  2.13765E-03  3.60400E-16  1.28701E+01  7.64685E-06  1.0E-07
  5.400E+00  2.21902E-03  3.55207E-16  1.26847E+01  7.82877E-06  1.0E-07
  5.500E+00  2.30190E-03  3.50025E-16  1.24996E+01  8.01262E-06  1.0E-07
  5.600E+00  2.38630E-03  3.44856E-16  1.23150E+01  8.19842E-06  1.0E-07
  5.700E+00  2.47222E-03  3.39702E-16  1.21310E+01  8.38617E-06  1.0E-07
  5.800E+00  2.55965E-03  3.34568E-16  1.19476E+01  8.57591E-06  1.0E-07
  5.900E+00  2.64859E-03  3.29455E-16  1.17650E+01  8.76764E-06  1.0E-07
  6.000E+00  2.73905E-03  3.24366E-16  1.15833E+01  8.96137E-06  1.0E-07
  6.100E+00  2.83103E-03  3.19304E-16  1.14026E+01  9.15712E-06  1.0E-07
  6.200E+00  2.92452E-03  3.14271E-16  1.12228E+01  9.35491E-06  1.0E-07
  6.300E+00  3.01952E-03  3.09269E-16  1.10442E+01  9.55473E-06  1.0E-07
  6.400E+00  3.11604E-03  3.04301E-16  1.08668E+01  9.75660E-06  1.0E-07
  6.500E+00  3.21407E-03  2.99368E-16  1.06906E+01  9.96052E-06  1.0E-07
  6.600E+00  3.31362E-03  2.94473E-16  1.05158E+01  1.01665E-05  1.0E-07
  6.700E+00  3.41468E-03  2.89617E-16  1.03424E+01  1.03746E-05  1.0E-07
  6.800E+00  3.51725E-03  2.84802E-16  1.01705E+01  1.05847E-05  1.0E-07
  6.900E+00  3.62133E-03  2.80030E-16  1.00000E+01  1.07969E-05  1.0E-07
  7.000E+00  3.72692E-03  2.75302E-16  9.83121E+00  1.10112E-05  1.0E-07
  7.100E+00  3.83403E-03  2.70619E-16  9.66400E+00  1.12275E-05  1.0E-07
  7.200E+00  3.94265E-03  2.65984E-16  9.49846E+00  1.14459E-05  1.0E-07
  7.300E+00  4.05278E-03  2.61397E-16  9.33465E+00  1.16664E-05  1.0E-07
  7.400E+00  4.16442E-03  2.56859E-16  9.17260E+00  1.18890E-05  1.0E-07
  7.500E+00  4.27757E-03  2.52372E-16  9.01235E+00  1.21136E-05  1.0E-07
  7.600E+00  4.39223E-03  2.47935E-16  8.85393E+00  1.23402E-05  1.0E-07
  7.700E+00  4.50840E-03  2.43551E-16  8.69738E+00  1.25689E-05  1.0E-07
  7.800E+00  4.62608E-03  2.39221E-16  8.54272E+00  1.27996E-05  1.0E-07
  7.900E+00  4.74527E-03  2.34943E-16  8.38998E+00  1.30324E-05  1.0E-07
  8.000E+00  4.86597E-03  2.30721E-16  8.23918E+00  1.32671E-05  1.0E-07
  8.100E+00  4.98817E-03  2.26553E-16  8.09034E+00  1.35038E-05  1.0E-07
  8.200E+00  5.11188E-03  2.22440E-16  7.94348E+00  1.37425E-05  1.0E-07
  8.300E+00  5.23711E-03  2.18383E-16  7.79861E+00  1.39831E-05  1.0E-07
  8.400E+00  5.36383E-03  2.14383E-16  7.65575E+00  1.42257E-05  1.0E-07
  8.500E+00  5.49207E-03  2.10439E-16  7.51490E+00  1.44702E-05  1.0E-07
  8.600E+00  5.62181E-03  2.06551E-16  7.37607E+00  1.47165E-05  1.0E-07
  8.700E+00  5.75306E-03  2.02720E-16  7.23928E+00  1.49647E-05  1.0E-07
  8.800E+00  5.88581E-03  1.98947E-16  7.10451E+00  1.52147E-05  1.0E-07
  8.900E+00  6.02007E-03  1.95230E-16  6.97178E+00  1.54665E-05  1.0E-07
  9.000E+00  6.15583E-03  1.91570E-16  6.84108E+00  1.57201E-05  1.0E-07
  9.100E+00  6.29310E-03  1.87967E-16  6.71241E+00  1.59754E-05  1.0E-07
  9.200E+00  6.43187E-03  1.84420E-16  6.58578E+00  1.62324E-05  1.0E-07
  9.300E+00  6.57214E-03  1.80931E-16  6.46116E+00  1.64910E-05  1.0E-07
  9.400E+00  6.71392E-03  1.77498E-16  6.33856E+00  1.67513E-05  1.0E-07
  9.500E+00  6.85720E-03  1.74121E-16  6.21796E+00  1.70131E-05  1.0E-07
  9.600E+00  7.00198E-03  1.70800E-16  6.09937E+00  1.72765E-05  1.0E-07
  9.700E+00  7.14827E-03  1.67534E-16  5.98276E+00  1.75414E-05  1.0E-07
  9.800E+00  7.29605E-03  1.64324E-16  5.86812E+00  1.78077E-05  1.0E-07
  9.900E+00  7.44534E-03  1.61169E-16  5.75545E+00  1.80753E-05  1.0E-07
  1.000E+01  7.59612E-03  1.58068E-16  5.64473E+00  1.83444E-05  1.0E-07
  1.025E+01  7.97965E-03  1.50553E-16  5.37633E+00  1.90224E-05  1.0E-07
  1.050E+01  8.37255E-03  1.43367E-16  5.11974E+00  1.97077E-05  1.0E-07
  1.075E+01  8.77480E-03  1.36505E-16  4.87467E+00  2.03991E-05  1.0E-07
  1.100E+01  9.18641E-03  1.29955E-16  4.64079E+00  2.10957E-05  1.0E-07
  1.125E+01  9.60736E-03  1.23710E-16  4.41778E+00  2.17963E-05  1.0E-07
  1.150E+01  1.00376E-02  1.17760E-16  4.20528E+00  2.24998E-05  1.0E-07
  1.175E+01  1.04773E-02  1.12093E-16  4.00292E+00  2.32050E-05  1.0E-07
  1.200E+01  1.09262E-02  1.06701E-16  3.81035E+00  2.39104E-05  1.0E-07
  1.225E+01  1.13844E-02  1.01571E-16  3.62718E+00  2.46147E-05  1.0E-07
  1.250E+01  1.18520E-02  9.66949E-17  3.45304E+00  2.53164E-05  1.0E-07
  1.275E+01  1.23288E-02  9.20611E-17  3.28756E+00  2.60139E-05  1.0E-07
  1.300E+01  1.28150E-02  8.76594E-17  3.13037E+00  2.67058E-05  1.0E-07
  1.325E+01  1.33104E-02  8.34797E-17  2.98111E+00  2.73902E-05  1.0E-07
  1.350E+01  1.38150E-02  7.95120E-17  2.83942E+00  2.80655E-05  1.0E-07
  1.375E+01  1.43290E-02  7.57465E-17  2.70496E+00  2.87299E-05  1.0E-07
  1.400E+01  1.48521E-02  7.21737E-17  2.57737E+00  2.93816E-05  1.0E-07
  1.425E+01  1.53845E-02  6.87845E-17  2.45634E+00  3.00187E-05  1.0E-07
  1.450E+01  1.59262E-02  6.55699E-17  2.34154E+00  3.06393E-05  1.0E-07
  1.475E+01  1.64770E-02  6.25211E-17  2.23267E+00  3.12414E-05  1.0E-07
  1.500E+01  1.70371E-02  5.96300E-17  2.12943E+00  3.18231E-05  1.0E-07
  1.525E+01  1.76063E-02  5.68885E-17  2.03153E+00  3.23825E-05  1.0E-07
  1.550E+01  1.81848E-02  5.42890E-17  1.93869E+00  3.29174E-05  1.0E-07
