 #
 # Subroutine ELSEPA. Elastic scattering of electrons and positrons
 #                    by neutral atoms and positive ions
 #
 # Projectile: electron
 # Kinetic energy = 4.00000E+01 eV = 1.46997E+00 a.u.
 #
 #  ***  WARNING: Energy is too low.
 #                The reliability of the results is questionable.
 #
 # Element:  C,  Z =   6,  atomic weight = 1.20107E+01 g/mol
 #
 # Nuclear model: Fermi distribution
 #                Average radius = 2.45042E-13 cm
 #                Skin thickness = 5.46000E-14 cm
 #
 # Number of electrons =  6
 #
 # Electron density: Read from file z_006.den   
 #                   Number of data points =  725
 #                   Volume integral = 6.00000E+00
 #
 # Furness-McCarthy exchange potential
 #
 # Total elastic cross section = 5.50406E-16 cm**2 = 1.96554E+01 a0**2
 # 1st transport cross section = 3.74035E-16 cm**2 = 1.33570E+01 a0**2
 # 2nd transport cross section = 2.88495E-16 cm**2 = 1.03023E+01 a0**2
 #
 #
 # Differential cross section:                       MU=(1-COS(THETA))/2
 #
 #  THETA        MU          DCS          DCS        Sherman      error
 #  (deg)                 (cm**2/sr)   (a0**2/sr)    function
 #----------------------------------------------------------------------
  0.000E+00  0.00000E+00  3.45840E-16  1.23502E+01  0.00000E+00  1.0E-07
  1.000E-04  7.61557E-13  3.45840E-16  1.23502E+01  2.13692E-10  1.0E-07
  1.250E-04  1.18994E-12  3.45840E-16  1.23502E+01  2.67115E-10  1.0E-07
  1.500E-04  1.71346E-12  3.45840E-16  1.23502E+01  3.20537E-10  1.0E-07
  1.750E-04  2.33225E-12  3.45840E-16  1.23502E+01  3.73960E-10  1.0E-07
  2.000E-04  3.04617E-12  3.45840E-16  1.23502E+01  4.27383E-10  1.0E-07
  2.250E-04  3.85530E-12  3.45840E-16  1.23502E+01  4.80806E-10  1.0E-07
  2.500E-04  4.75964E-12  3.45840E-16  1.23502E+01  5.34229E-10  1.0E-07
  2.750E-04  5.75917E-12  3.45840E-16  1.23502E+01  5.87652E-10  1.0E-07
  3.000E-04  6.85391E-12  3.45840E-16  1.23502E+01  6.41075E-10  1.0E-07
  3.250E-04  8.04379E-12  3.45840E-16  1.23502E+01  6.94498E-10  1.0E-07
  3.500E-04  9.32893E-12  3.45840E-16  1.23502E+01  7.47921E-10  1.0E-07
  3.750E-04  1.07092E-11  3.45840E-16  1.23502E+01  8.01344E-10  1.0E-07
  4.000E-04  1.21847E-11  3.45840E-16  1.23502E+01  8.54767E-10  1.0E-07
  4.250E-04  1.37554E-11  3.45840E-16  1.23502E+01  9.08189E-10  1.0E-07
  4.500E-04  1.54213E-11  3.45840E-16  1.23502E+01  9.61612E-10  1.0E-07
  4.750E-04  1.71823E-11  3.45840E-16  1.23502E+01  1.01504E-09  1.0E-07
  5.000E-04  1.90386E-11  3.45840E-16  1.23502E+01  1.06846E-09  1.0E-07
  5.250E-04  2.09900E-11  3.45840E-16  1.23502E+01  1.12188E-09  1.0E-07
  5.500E-04  2.30367E-11  3.45840E-16  1.23502E+01  1.17530E-09  1.0E-07
  5.750E-04  2.51785E-11  3.45840E-16  1.23502E+01  1.22873E-09  1.0E-07
  6.000E-04  2.74156E-11  3.45840E-16  1.23502E+01  1.28215E-09  1.0E-07
  6.250E-04  2.97478E-11  3.45840E-16  1.23502E+01  1.33557E-09  1.0E-07
  6.500E-04  3.21752E-11  3.45840E-16  1.23502E+01  1.38900E-09  1.0E-07
  6.750E-04  3.46979E-11  3.45840E-16  1.23502E+01  1.44242E-09  1.0E-07
  7.000E-04  3.73157E-11  3.45840E-16  1.23502E+01  1.49584E-09  1.0E-07
  7.250E-04  4.00286E-11  3.45840E-16  1.23502E+01  1.54926E-09  1.0E-07
  7.500E-04  4.28368E-11  3.45840E-16  1.23502E+01  1.60269E-09  1.0E-07
  7.750E-04  4.57402E-11  3.45840E-16  1.23502E+01  1.65611E-09  1.0E-07
  8.000E-04  4.87388E-11  3.45840E-16  1.23502E+01  1.70953E-09  1.0E-07
  8.250E-04  5.18325E-11  3.45840E-16  1.23502E+01  1.76296E-09  1.0E-07
  8.500E-04  5.50215E-11  3.45840E-16  1.23502E+01  1.81638E-09  1.0E-07
  8.750E-04  5.83057E-11  3.45840E-16  1.23502E+01  1.86980E-09  1.0E-07
  9.000E-04  6.16850E-11  3.45840E-16  1.23502E+01  1.92322E-09  1.0E-07
  9.250E-04  6.51595E-11  3.45840E-16  1.23502E+01  1.97665E-09  1.0E-07
  9.500E-04  6.87293E-11  3.45840E-16  1.23502E+01  2.03007E-09  1.0E-07
  9.750E-04  7.23943E-11  3.45840E-16  1.23502E+01  2.08349E-09  1.0E-07
  1.000E-03  7.61544E-11  3.45840E-16  1.23502E+01  2.13692E-09  1.0E-07
  1.250E-03  1.18991E-10  3.45840E-16  1.23502E+01  2.67115E-09  1.0E-07
  1.500E-03  1.71347E-10  3.45840E-16  1.23502E+01  3.20537E-09  1.0E-07
  1.750E-03  2.33223E-10  3.45840E-16  1.23502E+01  3.73960E-09  1.0E-07
  2.000E-03  3.04617E-10  3.45840E-16  1.23502E+01  4.27383E-09  1.0E-07
  2.250E-03  3.85531E-10  3.45840E-16  1.23502E+01  4.80806E-09  1.0E-07
  2.500E-03  4.75965E-10  3.45840E-16  1.23502E+01  5.34229E-09  1.0E-07
  2.750E-03  5.75917E-10  3.45840E-16  1.23502E+01  5.87652E-09  1.0E-07
  3.000E-03  6.85389E-10  3.45840E-16  1.23502E+01  6.41075E-09  1.0E-07
  3.250E-03  8.04380E-10  3.45840E-16  1.23502E+01  6.94498E-09  1.0E-07
  3.500E-03  9.32891E-10  3.45840E-16  1.23502E+01  7.47921E-09  1.0E-07
  3.750E-03  1.07092E-09  3.45840E-16  1.23502E+01  8.01344E-09  1.0E-07
  4.000E-03  1.21847E-09  3.45840E-16  1.23502E+01  8.54767E-09  1.0E-07
  4.250E-03  1.37554E-09  3.45840E-16  1.23502E+01  9.08189E-09  1.0E-07
  4.500E-03  1.54213E-09  3.45840E-16  1.23502E+01  9.61612E-09  1.0E-07
  4.750E-03  1.71823E-09  3.45840E-16  1.23502E+01  1.01504E-08  1.0E-07
  5.000E-03  1.90386E-09  3.45840E-16  1.23502E+01  1.06846E-08  1.0E-07
  5.250E-03  2.09900E-09  3.45840E-16  1.23502E+01  1.12188E-08  1.0E-07
  5.500E-03  2.30367E-09  3.45840E-16  1.23502E+01  1.17530E-08  1.0E-07
  5.750E-03  2.51785E-09  3.45840E-16  1.23502E+01  1.22873E-08  1.0E-07
  6.000E-03  2.74156E-09  3.45840E-16  1.23502E+01  1.28215E-08  1.0E-07
  6.250E-03  2.97478E-09  3.45840E-16  1.23502E+01  1.33557E-08  1.0E-07
  6.500E-03  3.21752E-09  3.45840E-16  1.23502E+01  1.38900E-08  1.0E-07
  6.750E-03  3.46978E-09  3.45840E-16  1.23502E+01  1.44242E-08  1.0E-07
  7.000E-03  3.73156E-09  3.45840E-16  1.23502E+01  1.49584E-08  1.0E-07
  7.250E-03  4.00286E-09  3.45840E-16  1.23502E+01  1.54926E-08  1.0E-07
  7.500E-03  4.28368E-09  3.45840E-16  1.23502E+01  1.60269E-08  1.0E-07
  7.750E-03  4.57402E-09  3.45840E-16  1.23502E+01  1.65611E-08  1.0E-07
  8.000E-03  4.87388E-09  3.45840E-16  1.23502E+01  1.70953E-08  1.0E-07
  8.250E-03  5.18326E-09  3.45840E-16  1.23502E+01  1.76296E-08  1.0E-07
  8.500E-03  5.50215E-09  3.45840E-16  1.23502E+01  1.81638E-08  1.0E-07
  8.750E-03  5.83057E-09  3.45840E-16  1.23502E+01  1.86980E-08  1.0E-07
  9.000E-03  6.16850E-09  3.45840E-16  1.23502E+01  1.92322E-08  1.0E-07
  9.250E-03  6.51596E-09  3.45840E-16  1.23502E+01  1.97665E-08  1.0E-07
  9.500E-03  6.87293E-09  3.45840E-16  1.23502E+01  2.03007E-08  1.0E-07
  9.750E-03  7.23942E-09  3.45840E-16  1.23502E+01  2.08349E-08  1.0E-07
  1.000E-02  7.61544E-09  3.45840E-16  1.23502E+01  2.13692E-08  1.0E-07
  1.250E-02  1.18991E-08  3.45840E-16  1.23502E+01  2.67115E-08  1.0E-07
  1.500E-02  1.71347E-08  3.45840E-16  1.23502E+01  3.20538E-08  1.0E-07
  1.750E-02  2.33223E-08  3.45840E-16  1.23502E+01  3.73960E-08  1.0E-07
  2.000E-02  3.04617E-08  3.45840E-16  1.23502E+01  4.27383E-08  1.0E-07
  2.250E-02  3.85531E-08  3.45840E-16  1.23502E+01  4.80806E-08  1.0E-07
  2.500E-02  4.75965E-08  3.45839E-16  1.23502E+01  5.34229E-08  1.0E-07
  2.750E-02  5.75917E-08  3.45839E-16  1.23502E+01  5.87652E-08  1.0E-07
  3.000E-02  6.85389E-08  3.45839E-16  1.23501E+01  6.41076E-08  1.0E-07
  3.250E-02  8.04380E-08  3.45839E-16  1.23501E+01  6.94499E-08  1.0E-07
  3.500E-02  9.32891E-08  3.45839E-16  1.23501E+01  7.47922E-08  1.0E-07
  3.750E-02  1.07092E-07  3.45839E-16  1.23501E+01  8.01345E-08  1.0E-07
  4.000E-02  1.21847E-07  3.45839E-16  1.23501E+01  8.54768E-08  1.0E-07
  4.250E-02  1.37554E-07  3.45839E-16  1.23501E+01  9.08191E-08  1.0E-07
  4.500E-02  1.54213E-07  3.45839E-16  1.23501E+01  9.61614E-08  1.0E-07
  4.750E-02  1.71823E-07  3.45839E-16  1.23501E+01  1.01504E-07  1.0E-07
  5.000E-02  1.90386E-07  3.45839E-16  1.23501E+01  1.06846E-07  1.0E-07
  5.250E-02  2.09900E-07  3.45839E-16  1.23501E+01  1.12188E-07  1.0E-07
  5.500E-02  2.30367E-07  3.45839E-16  1.23501E+01  1.17531E-07  1.0E-07
  5.750E-02  2.51785E-07  3.45838E-16  1.23501E+01  1.22873E-07  1.0E-07
  6.000E-02  2.74156E-07  3.45838E-16  1.23501E+01  1.28215E-07  1.0E-07
  6.250E-02  2.97478E-07  3.45838E-16  1.23501E+01  1.33558E-07  1.0E-07
  6.500E-02  3.21752E-07  3.45838E-16  1.23501E+01  1.38900E-07  1.0E-07
  6.750E-02  3.46978E-07  3.45838E-16  1.23501E+01  1.44243E-07  1.0E-07
  7.000E-02  3.73156E-07  3.45838E-16  1.23501E+01  1.49585E-07  1.0E-07
  7.250E-02  4.00286E-07  3.45838E-16  1.23501E+01  1.54927E-07  1.0E-07
  7.500E-02  4.28368E-07  3.45838E-16  1.23501E+01  1.60270E-07  1.0E-07
  7.750E-02  4.57402E-07  3.45837E-16  1.23501E+01  1.65612E-07  1.0E-07
  8.000E-02  4.87388E-07  3.45837E-16  1.23501E+01  1.70955E-07  1.0E-07
  8.250E-02  5.18325E-07  3.45837E-16  1.23501E+01  1.76297E-07  1.0E-07
  8.500E-02  5.50215E-07  3.45837E-16  1.23501E+01  1.81639E-07  1.0E-07
  8.750E-02  5.83057E-07  3.45837E-16  1.23501E+01  1.86982E-07  1.0E-07
  9.000E-02  6.16850E-07  3.45837E-16  1.23501E+01  1.92324E-07  1.0E-07
  9.250E-02  6.51596E-07  3.45837E-16  1.23500E+01  1.97667E-07  1.0E-07
  9.500E-02  6.87293E-07  3.45836E-16  1.23500E+01  2.03009E-07  1.0E-07
  9.750E-02  7.23942E-07  3.45836E-16  1.23500E+01  2.08352E-07  1.0E-07
  1.000E-01  7.61543E-07  3.45836E-16  1.23500E+01  2.13694E-07  1.0E-07
  1.250E-01  1.18991E-06  3.45834E-16  1.23500E+01  2.67119E-07  1.0E-07
  1.500E-01  1.71347E-06  3.45831E-16  1.23499E+01  3.20545E-07  1.0E-07
  1.750E-01  2.33223E-06  3.45828E-16  1.23498E+01  3.73973E-07  1.0E-07
  2.000E-01  3.04617E-06  3.45825E-16  1.23496E+01  4.27402E-07  1.0E-07
  2.250E-01  3.85531E-06  3.45821E-16  1.23495E+01  4.80833E-07  1.0E-07
  2.500E-01  4.75964E-06  3.45817E-16  1.23493E+01  5.34266E-07  1.0E-07
  2.750E-01  5.75916E-06  3.45812E-16  1.23492E+01  5.87701E-07  1.0E-07
  3.000E-01  6.85388E-06  3.45806E-16  1.23490E+01  6.41138E-07  1.0E-07
  3.250E-01  8.04378E-06  3.45801E-16  1.23488E+01  6.94579E-07  1.0E-07
  3.500E-01  9.32888E-06  3.45794E-16  1.23485E+01  7.48022E-07  1.0E-07
  3.750E-01  1.07092E-05  3.45788E-16  1.23483E+01  8.01468E-07  1.0E-07
  4.000E-01  1.21846E-05  3.45781E-16  1.23480E+01  8.54917E-07  1.0E-07
  4.250E-01  1.37553E-05  3.45773E-16  1.23478E+01  9.08370E-07  1.0E-07
  4.500E-01  1.54212E-05  3.45765E-16  1.23475E+01  9.61827E-07  1.0E-07
  4.750E-01  1.71822E-05  3.45756E-16  1.23472E+01  1.01529E-06  1.0E-07
  5.000E-01  1.90385E-05  3.45747E-16  1.23469E+01  1.06875E-06  1.0E-07
  5.250E-01  2.09899E-05  3.45738E-16  1.23465E+01  1.12222E-06  1.0E-07
  5.500E-01  2.30365E-05  3.45728E-16  1.23462E+01  1.17570E-06  1.0E-07
  5.750E-01  2.51783E-05  3.45717E-16  1.23458E+01  1.22917E-06  1.0E-07
  6.000E-01  2.74153E-05  3.45707E-16  1.23454E+01  1.28266E-06  1.0E-07
  6.250E-01  2.97475E-05  3.45695E-16  1.23450E+01  1.33615E-06  1.0E-07
  6.500E-01  3.21749E-05  3.45684E-16  1.23446E+01  1.38964E-06  1.0E-07
  6.750E-01  3.46974E-05  3.45671E-16  1.23441E+01  1.44314E-06  1.0E-07
  7.000E-01  3.73152E-05  3.45659E-16  1.23437E+01  1.49665E-06  1.0E-07
  7.250E-01  4.00281E-05  3.45645E-16  1.23432E+01  1.55016E-06  1.0E-07
  7.500E-01  4.28362E-05  3.45632E-16  1.23427E+01  1.60368E-06  1.0E-07
  7.750E-01  4.57395E-05  3.45618E-16  1.23422E+01  1.65721E-06  1.0E-07
  8.000E-01  4.87380E-05  3.45603E-16  1.23417E+01  1.71074E-06  1.0E-07
  8.250E-01  5.18317E-05  3.45588E-16  1.23412E+01  1.76428E-06  1.0E-07
  8.500E-01  5.50205E-05  3.45573E-16  1.23406E+01  1.81782E-06  1.0E-07
  8.750E-01  5.83045E-05  3.45557E-16  1.23401E+01  1.87138E-06  1.0E-07
  9.000E-01  6.16838E-05  3.45540E-16  1.23395E+01  1.92494E-06  1.0E-07
  9.250E-01  6.51582E-05  3.45524E-16  1.23389E+01  1.97851E-06  1.0E-07
  9.500E-01  6.87277E-05  3.45506E-16  1.23383E+01  2.03209E-06  1.0E-07
  9.750E-01  7.23925E-05  3.45488E-16  1.23376E+01  2.08568E-06  1.0E-07
  1.000E+00  7.61524E-05  3.45470E-16  1.23370E+01  2.13927E-06  1.0E-07
  1.100E+00  9.21439E-05  3.45393E-16  1.23342E+01  2.35374E-06  1.0E-07
  1.200E+00  1.09658E-04  3.45308E-16  1.23312E+01  2.56837E-06  1.0E-07
  1.300E+00  1.28695E-04  3.45216E-16  1.23279E+01  2.78316E-06  1.0E-07
  1.400E+00  1.49255E-04  3.45116E-16  1.23243E+01  2.99814E-06  1.0E-07
  1.500E+00  1.71338E-04  3.45009E-16  1.23205E+01  3.21332E-06  1.0E-07
  1.600E+00  1.94942E-04  3.44895E-16  1.23164E+01  3.42871E-06  1.0E-07
  1.700E+00  2.20070E-04  3.44773E-16  1.23121E+01  3.64433E-06  1.0E-07
  1.800E+00  2.46720E-04  3.44644E-16  1.23075E+01  3.86019E-06  1.0E-07
  1.900E+00  2.74892E-04  3.44508E-16  1.23026E+01  4.07630E-06  1.0E-07
  2.000E+00  3.04586E-04  3.44365E-16  1.22975E+01  4.29268E-06  1.0E-07
  2.100E+00  3.35803E-04  3.44214E-16  1.22921E+01  4.50935E-06  1.0E-07
  2.200E+00  3.68542E-04  3.44056E-16  1.22865E+01  4.72631E-06  1.0E-07
  2.300E+00  4.02802E-04  3.43891E-16  1.22806E+01  4.94359E-06  1.0E-07
  2.400E+00  4.38585E-04  3.43718E-16  1.22744E+01  5.16119E-06  1.0E-07
  2.500E+00  4.75889E-04  3.43538E-16  1.22680E+01  5.37913E-06  1.0E-07
  2.600E+00  5.14715E-04  3.43351E-16  1.22613E+01  5.59743E-06  1.0E-07
  2.700E+00  5.55063E-04  3.43157E-16  1.22544E+01  5.81610E-06  1.0E-07
  2.800E+00  5.96931E-04  3.42956E-16  1.22472E+01  6.03515E-06  1.0E-07
  2.900E+00  6.40321E-04  3.42747E-16  1.22397E+01  6.25460E-06  1.0E-07
  3.000E+00  6.85233E-04  3.42532E-16  1.22320E+01  6.47446E-06  1.0E-07
  3.100E+00  7.31665E-04  3.42309E-16  1.22241E+01  6.69475E-06  1.0E-07
  3.200E+00  7.79618E-04  3.42079E-16  1.22159E+01  6.91549E-06  1.0E-07
  3.300E+00  8.29092E-04  3.41842E-16  1.22074E+01  7.13667E-06  1.0E-07
  3.400E+00  8.80086E-04  3.41598E-16  1.21987E+01  7.35833E-06  1.0E-07
  3.500E+00  9.32601E-04  3.41347E-16  1.21897E+01  7.58048E-06  1.0E-07
  3.600E+00  9.86636E-04  3.41089E-16  1.21805E+01  7.80313E-06  1.0E-07
  3.700E+00  1.04219E-03  3.40824E-16  1.21710E+01  8.02629E-06  1.0E-07
  3.800E+00  1.09927E-03  3.40552E-16  1.21613E+01  8.24998E-06  1.0E-07
  3.900E+00  1.15786E-03  3.40272E-16  1.21514E+01  8.47421E-06  1.0E-07
  4.000E+00  1.21797E-03  3.39986E-16  1.21411E+01  8.69900E-06  1.0E-07
  4.100E+00  1.27961E-03  3.39693E-16  1.21307E+01  8.92437E-06  1.0E-07
  4.200E+00  1.34276E-03  3.39394E-16  1.21200E+01  9.15033E-06  1.0E-07
  4.300E+00  1.40743E-03  3.39087E-16  1.21090E+01  9.37688E-06  1.0E-07
  4.400E+00  1.47362E-03  3.38773E-16  1.20978E+01  9.60406E-06  1.0E-07
  4.500E+00  1.54133E-03  3.38453E-16  1.20864E+01  9.83187E-06  1.0E-07
  4.600E+00  1.61056E-03  3.38125E-16  1.20747E+01  1.00603E-05  1.0E-07
  4.700E+00  1.68131E-03  3.37791E-16  1.20627E+01  1.02895E-05  1.0E-07
  4.800E+00  1.75357E-03  3.37450E-16  1.20506E+01  1.05193E-05  1.0E-07
  4.900E+00  1.82735E-03  3.37103E-16  1.20382E+01  1.07497E-05  1.0E-07
  5.000E+00  1.90265E-03  3.36749E-16  1.20255E+01  1.09809E-05  1.0E-07
  5.100E+00  1.97947E-03  3.36388E-16  1.20126E+01  1.12129E-05  1.0E-07
  5.200E+00  2.05780E-03  3.36020E-16  1.19995E+01  1.14455E-05  1.0E-07
  5.300E+00  2.13765E-03  3.35646E-16  1.19861E+01  1.16789E-05  1.0E-07
  5.400E+00  2.21902E-03  3.35265E-16  1.19725E+01  1.19131E-05  1.0E-07
  5.500E+00  2.30190E-03  3.34878E-16  1.19587E+01  1.21481E-05  1.0E-07
  5.600E+00  2.38630E-03  3.34484E-16  1.19446E+01  1.23839E-05  1.0E-07
  5.700E+00  2.47222E-03  3.34083E-16  1.19303E+01  1.26205E-05  1.0E-07
  5.800E+00  2.55965E-03  3.33677E-16  1.19158E+01  1.28579E-05  1.0E-07
  5.900E+00  2.64859E-03  3.33263E-16  1.19010E+01  1.30961E-05  1.0E-07
  6.000E+00  2.73905E-03  3.32844E-16  1.18861E+01  1.33353E-05  1.0E-07
  6.100E+00  2.83103E-03  3.32417E-16  1.18708E+01  1.35753E-05  1.0E-07
  6.200E+00  2.92452E-03  3.31985E-16  1.18554E+01  1.38162E-05  1.0E-07
  6.300E+00  3.01952E-03  3.31546E-16  1.18397E+01  1.40580E-05  1.0E-07
  6.400E+00  3.11604E-03  3.31101E-16  1.18238E+01  1.43007E-05  1.0E-07
  6.500E+00  3.21407E-03  3.30650E-16  1.18077E+01  1.45443E-05  1.0E-07
  6.600E+00  3.31362E-03  3.30193E-16  1.17914E+01  1.47890E-05  1.0E-07
  6.700E+00  3.41468E-03  3.29729E-16  1.17748E+01  1.50346E-05  1.0E-07
  6.800E+00  3.51725E-03  3.29259E-16  1.17581E+01  1.52811E-05  1.0E-07
  6.900E+00  3.62133E-03  3.28783E-16  1.17411E+01  1.55287E-05  1.0E-07
  7.000E+00  3.72692E-03  3.28301E-16  1.17239E+01  1.57773E-05  1.0E-07
  7.100E+00  3.83403E-03  3.27814E-16  1.17064E+01  1.60270E-05  1.0E-07
  7.200E+00  3.94265E-03  3.27320E-16  1.16888E+01  1.62777E-05  1.0E-07
  7.300E+00  4.05278E-03  3.26820E-16  1.16709E+01  1.65294E-05  1.0E-07
  7.400E+00  4.16442E-03  3.26314E-16  1.16529E+01  1.67823E-05  1.0E-07
  7.500E+00  4.27757E-03  3.25802E-16  1.16346E+01  1.70362E-05  1.0E-07
  7.600E+00  4.39223E-03  3.25285E-16  1.16161E+01  1.72913E-05  1.0E-07
  7.700E+00  4.50840E-03  3.24761E-16  1.15974E+01  1.75475E-05  1.0E-07
  7.800E+00  4.62608E-03  3.24232E-16  1.15785E+01  1.78049E-05  1.0E-07
  7.900E+00  4.74527E-03  3.23697E-16  1.15594E+01  1.80634E-05  1.0E-07
  8.000E+00  4.86597E-03  3.23157E-16  1.15401E+01  1.83231E-05  1.0E-07
  8.100E+00  4.98817E-03  3.22611E-16  1.15206E+01  1.85840E-05  1.0E-07
  8.200E+00  5.11188E-03  3.22059E-16  1.15009E+01  1.88461E-05  1.0E-07
  8.300E+00  5.23711E-03  3.21502E-16  1.14810E+01  1.91095E-05  1.0E-07
  8.400E+00  5.36383E-03  3.20939E-16  1.14609E+01  1.93741E-05  1.0E-07
  8.500E+00  5.49207E-03  3.20371E-16  1.14406E+01  1.96399E-05  1.0E-07
  8.600E+00  5.62181E-03  3.19797E-16  1.14202E+01  1.99071E-05  1.0E-07
  8.700E+00  5.75306E-03  3.19218E-16  1.13995E+01  2.01756E-05  1.0E-07
  8.800E+00  5.88581E-03  3.18633E-16  1.13786E+01  2.04453E-05  1.0E-07
  8.900E+00  6.02007E-03  3.18043E-16  1.13575E+01  2.07164E-05  1.0E-07
  9.000E+00  6.15583E-03  3.17448E-16  1.13363E+01  2.09889E-05  1.0E-07
  9.100E+00  6.29310E-03  3.16848E-16  1.13148E+01  2.12628E-05  1.0E-07
  9.200E+00  6.43187E-03  3.16242E-16  1.12932E+01  2.15380E-05  1.0E-07
  9.300E+00  6.57214E-03  3.15632E-16  1.12714E+01  2.18146E-05  1.0E-07
  9.400E+00  6.71392E-03  3.15016E-16  1.12494E+01  2.20927E-05  1.0E-07
  9.500E+00  6.85720E-03  3.14395E-16  1.12273E+01  2.23722E-05  1.0E-07
  9.600E+00  7.00198E-03  3.13770E-16  1.12049E+01  2.26532E-05  1.0E-07
  9.700E+00  7.14827E-03  3.13139E-16  1.11824E+01  2.29356E-05  1.0E-07
  9.800E+00  7.29605E-03  3.12503E-16  1.11597E+01  2.32196E-05  1.0E-07
  9.900E+00  7.44534E-03  3.11863E-16  1.11368E+01  2.35050E-05  1.0E-07
  1.000E+01  7.59612E-03  3.11217E-16  1.11138E+01  2.37920E-05  1.0E-07
  1.025E+01  7.97965E-03  3.09583E-16  1.10554E+01  2.45163E-05  1.0E-07
  1.050E+01  8.37255E-03  3.07919E-16  1.09960E+01  2.52506E-05  1.0E-07
  1.075E+01  8.77480E-03  3.06227E-16  1.09356E+01  2.59951E-05  1.0E-07
  1.100E+01  9.18641E-03  3.04508E-16  1.08742E+01  2.67502E-05  1.0E-07
  1.125E+01  9.60736E-03  3.02761E-16  1.08118E+01  2.75162E-05  1.0E-07
  1.150E+01  1.00376E-02  3.00988E-16  1.07485E+01  2.82933E-05  1.0E-07
  1.175E+01  1.04773E-02  2.99190E-16  1.06843E+01  2.90818E-05  1.0E-07
  1.200E+01  1.09262E-02  2.97367E-16  1.06192E+01  2.98822E-05  1.0E-07
  1.225E+01  1.13844E-02  2.95520E-16  1.05532E+01  3.06946E-05  1.0E-07
  1.250E+01  1.18520E-02  2.93650E-16  1.04864E+01  3.15194E-05  1.0E-07
  1.275E+01  1.23288E-02  2.91757E-16  1.04188E+01  3.23569E-05  1.0E-07
  1.300E+01  1.28150E-02  2.89842E-16  1.03505E+01  3.32075E-05  1.0E-07
  1.325E+01  1.33104E-02  2.87907E-16  1.02813E+01  3.40714E-05  1.0E-07
  1.350E+01  1.38150E-02  2.85951E-16  1.02115E+01  3.49490E-05  1.0E-07
  1.375E+01  1.43290E-02  2.83977E-16  1.01410E+01  3.58407E-05  1.0E-07
  1.400E+01  1.48521E-02  2.81983E-16  1.00698E+01  3.67467E-05  1.0E-07
  1.425E+01  1.53845E-02  2.79972E-16  9.99797E+00  3.76674E-05  1.0E-07
  1.450E+01  1.59262E-02  2.77943E-16  9.92553E+00  3.86031E-05  1.0E-07
  1.475E+01  1.64770E-02  2.75898E-16  9.85251E+00  3.95543E-05  1.0E-07
  1.500E+01  1.70371E-02  2.73838E-16  9.77894E+00  4.05213E-05  1.0E-07
