 #
 # Subroutine ELSEPA. Elastic scattering of electrons and positrons
 #                    by neutral atoms and positive ions
 #
 # Projectile: electron
 # Kinetic energy = 1.00000E+01 eV = 3.67493E-01 a.u.
 #
 #  ***  WARNING: Energy is too low.
 #                The reliability of the results is questionable.
 #
 # Element:  C,  Z =   6,  atomic weight = 1.20107E+01 g/mol
 #
 # Nuclear model: Fermi distribution
 #                Average radius = 2.45042E-13 cm
 #                Skin thickness = 5.46000E-14 cm
 #
 # Number of electrons =  6
 #
 # Electron density: Read from file z_006.den   
 #                   Number of data points =  725
 #                   Volume integral = 6.00000E+00
 #
 # Furness-McCarthy exchange potential
 #
 # Total elastic cross section = 1.55454E-15 cm**2 = 5.55135E+01 a0**2
 # 1st transport cross section = 1.03128E-15 cm**2 = 3.68275E+01 a0**2
 # 2nd transport cross section = 1.10075E-15 cm**2 = 3.93085E+01 a0**2
 #
 #
 # Differential cross section:                       MU=(1-COS(THETA))/2
 #
 #  THETA        MU          DCS          DCS        Sherman      error
 #  (deg)                 (cm**2/sr)   (a0**2/sr)    function
 #----------------------------------------------------------------------
  0.000E+00  0.00000E+00  4.04061E-16  1.44293E+01  0.00000E+00  1.0E-07
  1.000E-04  7.61557E-13  4.04061E-16  1.44293E+01  4.77118E-10  1.0E-07
  1.250E-04  1.18994E-12  4.04061E-16  1.44293E+01  5.96398E-10  1.0E-07
  1.500E-04  1.71346E-12  4.04061E-16  1.44293E+01  7.15678E-10  1.0E-07
  1.750E-04  2.33225E-12  4.04061E-16  1.44293E+01  8.34957E-10  1.0E-07
  2.000E-04  3.04617E-12  4.04061E-16  1.44293E+01  9.54237E-10  1.0E-07
  2.250E-04  3.85530E-12  4.04061E-16  1.44293E+01  1.07352E-09  1.0E-07
  2.500E-04  4.75964E-12  4.04061E-16  1.44293E+01  1.19280E-09  1.0E-07
  2.750E-04  5.75917E-12  4.04061E-16  1.44293E+01  1.31208E-09  1.0E-07
  3.000E-04  6.85391E-12  4.04061E-16  1.44293E+01  1.43136E-09  1.0E-07
  3.250E-04  8.04379E-12  4.04061E-16  1.44293E+01  1.55063E-09  1.0E-07
  3.500E-04  9.32893E-12  4.04061E-16  1.44293E+01  1.66991E-09  1.0E-07
  3.750E-04  1.07092E-11  4.04061E-16  1.44293E+01  1.78919E-09  1.0E-07
  4.000E-04  1.21847E-11  4.04061E-16  1.44293E+01  1.90847E-09  1.0E-07
  4.250E-04  1.37554E-11  4.04061E-16  1.44293E+01  2.02775E-09  1.0E-07
  4.500E-04  1.54213E-11  4.04061E-16  1.44293E+01  2.14703E-09  1.0E-07
  4.750E-04  1.71823E-11  4.04061E-16  1.44293E+01  2.26631E-09  1.0E-07
  5.000E-04  1.90386E-11  4.04061E-16  1.44293E+01  2.38559E-09  1.0E-07
  5.250E-04  2.09900E-11  4.04061E-16  1.44293E+01  2.50487E-09  1.0E-07
  5.500E-04  2.30367E-11  4.04061E-16  1.44293E+01  2.62415E-09  1.0E-07
  5.750E-04  2.51785E-11  4.04061E-16  1.44293E+01  2.74343E-09  1.0E-07
  6.000E-04  2.74156E-11  4.04061E-16  1.44293E+01  2.86271E-09  1.0E-07
  6.250E-04  2.97478E-11  4.04061E-16  1.44293E+01  2.98199E-09  1.0E-07
  6.500E-04  3.21752E-11  4.04061E-16  1.44293E+01  3.10127E-09  1.0E-07
  6.750E-04  3.46979E-11  4.04061E-16  1.44293E+01  3.22055E-09  1.0E-07
  7.000E-04  3.73157E-11  4.04061E-16  1.44293E+01  3.33983E-09  1.0E-07
  7.250E-04  4.00286E-11  4.04061E-16  1.44293E+01  3.45911E-09  1.0E-07
  7.500E-04  4.28368E-11  4.04061E-16  1.44293E+01  3.57839E-09  1.0E-07
  7.750E-04  4.57402E-11  4.04061E-16  1.44293E+01  3.69767E-09  1.0E-07
  8.000E-04  4.87388E-11  4.04061E-16  1.44293E+01  3.81695E-09  1.0E-07
  8.250E-04  5.18325E-11  4.04061E-16  1.44293E+01  3.93623E-09  1.0E-07
  8.500E-04  5.50215E-11  4.04061E-16  1.44293E+01  4.05551E-09  1.0E-07
  8.750E-04  5.83057E-11  4.04061E-16  1.44293E+01  4.17479E-09  1.0E-07
  9.000E-04  6.16850E-11  4.04061E-16  1.44293E+01  4.29407E-09  1.0E-07
  9.250E-04  6.51595E-11  4.04061E-16  1.44293E+01  4.41335E-09  1.0E-07
  9.500E-04  6.87293E-11  4.04061E-16  1.44293E+01  4.53263E-09  1.0E-07
  9.750E-04  7.23943E-11  4.04061E-16  1.44293E+01  4.65190E-09  1.0E-07
  1.000E-03  7.61544E-11  4.04061E-16  1.44293E+01  4.77118E-09  1.0E-07
  1.250E-03  1.18991E-10  4.04061E-16  1.44293E+01  5.96398E-09  1.0E-07
  1.500E-03  1.71347E-10  4.04061E-16  1.44293E+01  7.15678E-09  1.0E-07
  1.750E-03  2.33223E-10  4.04061E-16  1.44293E+01  8.34957E-09  1.0E-07
  2.000E-03  3.04617E-10  4.04061E-16  1.44293E+01  9.54237E-09  1.0E-07
  2.250E-03  3.85531E-10  4.04061E-16  1.44293E+01  1.07352E-08  1.0E-07
  2.500E-03  4.75965E-10  4.04061E-16  1.44293E+01  1.19280E-08  1.0E-07
  2.750E-03  5.75917E-10  4.04061E-16  1.44293E+01  1.31208E-08  1.0E-07
  3.000E-03  6.85389E-10  4.04061E-16  1.44293E+01  1.43136E-08  1.0E-07
  3.250E-03  8.04380E-10  4.04061E-16  1.44293E+01  1.55063E-08  1.0E-07
  3.500E-03  9.32891E-10  4.04061E-16  1.44293E+01  1.66991E-08  1.0E-07
  3.750E-03  1.07092E-09  4.04061E-16  1.44293E+01  1.78919E-08  1.0E-07
  4.000E-03  1.21847E-09  4.04061E-16  1.44293E+01  1.90847E-08  1.0E-07
  4.250E-03  1.37554E-09  4.04061E-16  1.44293E+01  2.02775E-08  1.0E-07
  4.500E-03  1.54213E-09  4.04061E-16  1.44293E+01  2.14703E-08  1.0E-07
  4.750E-03  1.71823E-09  4.04061E-16  1.44293E+01  2.26631E-08  1.0E-07
  5.000E-03  1.90386E-09  4.04061E-16  1.44293E+01  2.38559E-08  1.0E-07
  5.250E-03  2.09900E-09  4.04061E-16  1.44293E+01  2.50487E-08  1.0E-07
  5.500E-03  2.30367E-09  4.04061E-16  1.44293E+01  2.62415E-08  1.0E-07
  5.750E-03  2.51785E-09  4.04061E-16  1.44293E+01  2.74343E-08  1.0E-07
  6.000E-03  2.74156E-09  4.04061E-16  1.44293E+01  2.86271E-08  1.0E-07
  6.250E-03  2.97478E-09  4.04061E-16  1.44293E+01  2.98199E-08  1.0E-07
  6.500E-03  3.21752E-09  4.04061E-16  1.44293E+01  3.10127E-08  1.0E-07
  6.750E-03  3.46978E-09  4.04061E-16  1.44293E+01  3.22055E-08  1.0E-07
  7.000E-03  3.73156E-09  4.04061E-16  1.44293E+01  3.33983E-08  1.0E-07
  7.250E-03  4.00286E-09  4.04061E-16  1.44293E+01  3.45911E-08  1.0E-07
  7.500E-03  4.28368E-09  4.04061E-16  1.44293E+01  3.57839E-08  1.0E-07
  7.750E-03  4.57402E-09  4.04061E-16  1.44293E+01  3.69767E-08  1.0E-07
  8.000E-03  4.87388E-09  4.04061E-16  1.44293E+01  3.81695E-08  1.0E-07
  8.250E-03  5.18326E-09  4.04061E-16  1.44293E+01  3.93623E-08  1.0E-07
  8.500E-03  5.50215E-09  4.04061E-16  1.44293E+01  4.05551E-08  1.0E-07
  8.750E-03  5.83057E-09  4.04061E-16  1.44293E+01  4.17479E-08  1.0E-07
  9.000E-03  6.16850E-09  4.04061E-16  1.44293E+01  4.29407E-08  1.0E-07
  9.250E-03  6.51596E-09  4.04061E-16  1.44293E+01  4.41335E-08  1.0E-07
  9.500E-03  6.87293E-09  4.04061E-16  1.44293E+01  4.53263E-08  1.0E-07
  9.750E-03  7.23942E-09  4.04061E-16  1.44293E+01  4.65191E-08  1.0E-07
  1.000E-02  7.61544E-09  4.04061E-16  1.44293E+01  4.77118E-08  1.0E-07
  1.250E-02  1.18991E-08  4.04061E-16  1.44293E+01  5.96398E-08  1.0E-07
  1.500E-02  1.71347E-08  4.04061E-16  1.44293E+01  7.15678E-08  1.0E-07
  1.750E-02  2.33223E-08  4.04061E-16  1.44293E+01  8.34957E-08  1.0E-07
  2.000E-02  3.04617E-08  4.04061E-16  1.44293E+01  9.54237E-08  1.0E-07
  2.250E-02  3.85531E-08  4.04061E-16  1.44293E+01  1.07352E-07  1.0E-07
  2.500E-02  4.75965E-08  4.04061E-16  1.44293E+01  1.19280E-07  1.0E-07
  2.750E-02  5.75917E-08  4.04061E-16  1.44293E+01  1.31208E-07  1.0E-07
  3.000E-02  6.85389E-08  4.04061E-16  1.44293E+01  1.43136E-07  1.0E-07
  3.250E-02  8.04380E-08  4.04061E-16  1.44293E+01  1.55064E-07  1.0E-07
  3.500E-02  9.32891E-08  4.04061E-16  1.44293E+01  1.66992E-07  1.0E-07
  3.750E-02  1.07092E-07  4.04061E-16  1.44293E+01  1.78920E-07  1.0E-07
  4.000E-02  1.21847E-07  4.04061E-16  1.44293E+01  1.90847E-07  1.0E-07
  4.250E-02  1.37554E-07  4.04061E-16  1.44293E+01  2.02775E-07  1.0E-07
  4.500E-02  1.54213E-07  4.04061E-16  1.44293E+01  2.14703E-07  1.0E-07
  4.750E-02  1.71823E-07  4.04061E-16  1.44293E+01  2.26631E-07  1.0E-07
  5.000E-02  1.90386E-07  4.04061E-16  1.44293E+01  2.38559E-07  1.0E-07
  5.250E-02  2.09900E-07  4.04061E-16  1.44293E+01  2.50487E-07  1.0E-07
  5.500E-02  2.30367E-07  4.04061E-16  1.44293E+01  2.62415E-07  1.0E-07
  5.750E-02  2.51785E-07  4.04061E-16  1.44293E+01  2.74343E-07  1.0E-07
  6.000E-02  2.74156E-07  4.04061E-16  1.44293E+01  2.86271E-07  1.0E-07
  6.250E-02  2.97478E-07  4.04061E-16  1.44293E+01  2.98199E-07  1.0E-07
  6.500E-02  3.21752E-07  4.04061E-16  1.44293E+01  3.10127E-07  1.0E-07
  6.750E-02  3.46978E-07  4.04061E-16  1.44293E+01  3.22055E-07  1.0E-07
  7.000E-02  3.73156E-07  4.04061E-16  1.44293E+01  3.33983E-07  1.0E-07
  7.250E-02  4.00286E-07  4.04061E-16  1.44293E+01  3.45911E-07  1.0E-07
  7.500E-02  4.28368E-07  4.04061E-16  1.44293E+01  3.57840E-07  1.0E-07
  7.750E-02  4.57402E-07  4.04061E-16  1.44293E+01  3.69768E-07  1.0E-07
  8.000E-02  4.87388E-07  4.04061E-16  1.44293E+01  3.81696E-07  1.0E-07
  8.250E-02  5.18325E-07  4.04060E-16  1.44293E+01  3.93624E-07  1.0E-07
  8.500E-02  5.50215E-07  4.04060E-16  1.44293E+01  4.05552E-07  1.0E-07
  8.750E-02  5.83057E-07  4.04060E-16  1.44293E+01  4.17480E-07  1.0E-07
  9.000E-02  6.16850E-07  4.04060E-16  1.44293E+01  4.29408E-07  1.0E-07
  9.250E-02  6.51596E-07  4.04060E-16  1.44293E+01  4.41336E-07  1.0E-07
  9.500E-02  6.87293E-07  4.04060E-16  1.44293E+01  4.53264E-07  1.0E-07
  9.750E-02  7.23942E-07  4.04060E-16  1.44293E+01  4.65192E-07  1.0E-07
  1.000E-01  7.61543E-07  4.04060E-16  1.44293E+01  4.77120E-07  1.0E-07
  1.250E-01  1.18991E-06  4.04060E-16  1.44292E+01  5.96401E-07  1.0E-07
  1.500E-01  1.71347E-06  4.04059E-16  1.44292E+01  7.15683E-07  1.0E-07
  1.750E-01  2.33223E-06  4.04058E-16  1.44292E+01  8.34966E-07  1.0E-07
  2.000E-01  3.04617E-06  4.04058E-16  1.44292E+01  9.54249E-07  1.0E-07
  2.250E-01  3.85531E-06  4.04057E-16  1.44291E+01  1.07353E-06  1.0E-07
  2.500E-01  4.75964E-06  4.04056E-16  1.44291E+01  1.19282E-06  1.0E-07
  2.750E-01  5.75916E-06  4.04054E-16  1.44290E+01  1.31211E-06  1.0E-07
  3.000E-01  6.85388E-06  4.04053E-16  1.44290E+01  1.43140E-06  1.0E-07
  3.250E-01  8.04378E-06  4.04052E-16  1.44289E+01  1.55069E-06  1.0E-07
  3.500E-01  9.32888E-06  4.04050E-16  1.44289E+01  1.66998E-06  1.0E-07
  3.750E-01  1.07092E-05  4.04049E-16  1.44288E+01  1.78928E-06  1.0E-07
  4.000E-01  1.21846E-05  4.04047E-16  1.44288E+01  1.90857E-06  1.0E-07
  4.250E-01  1.37553E-05  4.04045E-16  1.44287E+01  2.02787E-06  1.0E-07
  4.500E-01  1.54212E-05  4.04043E-16  1.44286E+01  2.14718E-06  1.0E-07
  4.750E-01  1.71822E-05  4.04041E-16  1.44286E+01  2.26648E-06  1.0E-07
  5.000E-01  1.90385E-05  4.04039E-16  1.44285E+01  2.38579E-06  1.0E-07
  5.250E-01  2.09899E-05  4.04037E-16  1.44284E+01  2.50510E-06  1.0E-07
  5.500E-01  2.30365E-05  4.04034E-16  1.44283E+01  2.62441E-06  1.0E-07
  5.750E-01  2.51783E-05  4.04032E-16  1.44282E+01  2.74373E-06  1.0E-07
  6.000E-01  2.74153E-05  4.04029E-16  1.44281E+01  2.86305E-06  1.0E-07
  6.250E-01  2.97475E-05  4.04026E-16  1.44280E+01  2.98237E-06  1.0E-07
  6.500E-01  3.21749E-05  4.04023E-16  1.44279E+01  3.10170E-06  1.0E-07
  6.750E-01  3.46974E-05  4.04021E-16  1.44278E+01  3.22103E-06  1.0E-07
  7.000E-01  3.73152E-05  4.04017E-16  1.44277E+01  3.34037E-06  1.0E-07
  7.250E-01  4.00281E-05  4.04014E-16  1.44276E+01  3.45971E-06  1.0E-07
  7.500E-01  4.28362E-05  4.04011E-16  1.44275E+01  3.57905E-06  1.0E-07
  7.750E-01  4.57395E-05  4.04008E-16  1.44274E+01  3.69840E-06  1.0E-07
  8.000E-01  4.87380E-05  4.04004E-16  1.44272E+01  3.81775E-06  1.0E-07
  8.250E-01  5.18317E-05  4.04000E-16  1.44271E+01  3.93711E-06  1.0E-07
  8.500E-01  5.50205E-05  4.03997E-16  1.44270E+01  4.05647E-06  1.0E-07
  8.750E-01  5.83045E-05  4.03993E-16  1.44268E+01  4.17584E-06  1.0E-07
  9.000E-01  6.16838E-05  4.03989E-16  1.44267E+01  4.29521E-06  1.0E-07
  9.250E-01  6.51582E-05  4.03985E-16  1.44266E+01  4.41459E-06  1.0E-07
  9.500E-01  6.87277E-05  4.03981E-16  1.44264E+01  4.53397E-06  1.0E-07
  9.750E-01  7.23925E-05  4.03976E-16  1.44263E+01  4.65336E-06  1.0E-07
  1.000E+00  7.61524E-05  4.03972E-16  1.44261E+01  4.77276E-06  1.0E-07
  1.100E+00  9.21439E-05  4.03953E-16  1.44254E+01  5.25039E-06  1.0E-07
  1.200E+00  1.09658E-04  4.03933E-16  1.44247E+01  5.72814E-06  1.0E-07
  1.300E+00  1.28695E-04  4.03911E-16  1.44239E+01  6.20599E-06  1.0E-07
  1.400E+00  1.49255E-04  4.03887E-16  1.44231E+01  6.68397E-06  1.0E-07
  1.500E+00  1.71338E-04  4.03861E-16  1.44221E+01  7.16208E-06  1.0E-07
  1.600E+00  1.94942E-04  4.03833E-16  1.44211E+01  7.64033E-06  1.0E-07
  1.700E+00  2.20070E-04  4.03804E-16  1.44201E+01  8.11873E-06  1.0E-07
  1.800E+00  2.46720E-04  4.03773E-16  1.44190E+01  8.59729E-06  1.0E-07
  1.900E+00  2.74892E-04  4.03740E-16  1.44178E+01  9.07602E-06  1.0E-07
  2.000E+00  3.04586E-04  4.03705E-16  1.44166E+01  9.55493E-06  1.0E-07
  2.100E+00  3.35803E-04  4.03669E-16  1.44153E+01  1.00340E-05  1.0E-07
  2.200E+00  3.68542E-04  4.03630E-16  1.44139E+01  1.05133E-05  1.0E-07
  2.300E+00  4.02802E-04  4.03590E-16  1.44125E+01  1.09928E-05  1.0E-07
  2.400E+00  4.38585E-04  4.03549E-16  1.44110E+01  1.14726E-05  1.0E-07
  2.500E+00  4.75889E-04  4.03505E-16  1.44094E+01  1.19525E-05  1.0E-07
  2.600E+00  5.14715E-04  4.03460E-16  1.44078E+01  1.24327E-05  1.0E-07
  2.700E+00  5.55063E-04  4.03413E-16  1.44061E+01  1.29131E-05  1.0E-07
  2.800E+00  5.96931E-04  4.03364E-16  1.44044E+01  1.33938E-05  1.0E-07
  2.900E+00  6.40321E-04  4.03313E-16  1.44026E+01  1.38747E-05  1.0E-07
  3.000E+00  6.85233E-04  4.03261E-16  1.44007E+01  1.43559E-05  1.0E-07
  3.100E+00  7.31665E-04  4.03207E-16  1.43988E+01  1.48374E-05  1.0E-07
  3.200E+00  7.79618E-04  4.03151E-16  1.43968E+01  1.53192E-05  1.0E-07
  3.300E+00  8.29092E-04  4.03093E-16  1.43947E+01  1.58013E-05  1.0E-07
  3.400E+00  8.80086E-04  4.03034E-16  1.43926E+01  1.62837E-05  1.0E-07
  3.500E+00  9.32601E-04  4.02972E-16  1.43904E+01  1.67664E-05  1.0E-07
  3.600E+00  9.86636E-04  4.02909E-16  1.43882E+01  1.72495E-05  1.0E-07
  3.700E+00  1.04219E-03  4.02845E-16  1.43858E+01  1.77329E-05  1.0E-07
  3.800E+00  1.09927E-03  4.02778E-16  1.43835E+01  1.82166E-05  1.0E-07
  3.900E+00  1.15786E-03  4.02710E-16  1.43810E+01  1.87007E-05  1.0E-07
  4.000E+00  1.21797E-03  4.02640E-16  1.43785E+01  1.91852E-05  1.0E-07
  4.100E+00  1.27961E-03  4.02568E-16  1.43760E+01  1.96700E-05  1.0E-07
  4.200E+00  1.34276E-03  4.02494E-16  1.43733E+01  2.01552E-05  1.0E-07
  4.300E+00  1.40743E-03  4.02419E-16  1.43706E+01  2.06408E-05  1.0E-07
  4.400E+00  1.47362E-03  4.02342E-16  1.43679E+01  2.11269E-05  1.0E-07
  4.500E+00  1.54133E-03  4.02263E-16  1.43651E+01  2.16133E-05  1.0E-07
  4.600E+00  1.61056E-03  4.02183E-16  1.43622E+01  2.21001E-05  1.0E-07
  4.700E+00  1.68131E-03  4.02100E-16  1.43593E+01  2.25874E-05  1.0E-07
  4.800E+00  1.75357E-03  4.02016E-16  1.43563E+01  2.30751E-05  1.0E-07
  4.900E+00  1.82735E-03  4.01931E-16  1.43532E+01  2.35633E-05  1.0E-07
  5.000E+00  1.90265E-03  4.01843E-16  1.43501E+01  2.40519E-05  1.0E-07
  5.100E+00  1.97947E-03  4.01754E-16  1.43469E+01  2.45410E-05  1.0E-07
  5.200E+00  2.05780E-03  4.01663E-16  1.43436E+01  2.50306E-05  1.0E-07
  5.300E+00  2.13765E-03  4.01570E-16  1.43403E+01  2.55207E-05  1.0E-07
  5.400E+00  2.21902E-03  4.01476E-16  1.43370E+01  2.60113E-05  1.0E-07
  5.500E+00  2.30190E-03  4.01379E-16  1.43335E+01  2.65023E-05  1.0E-07
  5.600E+00  2.38630E-03  4.01281E-16  1.43300E+01  2.69939E-05  1.0E-07
  5.700E+00  2.47222E-03  4.01182E-16  1.43265E+01  2.74860E-05  1.0E-07
  5.800E+00  2.55965E-03  4.01080E-16  1.43228E+01  2.79786E-05  1.0E-07
  5.900E+00  2.64859E-03  4.00977E-16  1.43192E+01  2.84718E-05  1.0E-07
  6.000E+00  2.73905E-03  4.00872E-16  1.43154E+01  2.89656E-05  1.0E-07
  6.100E+00  2.83103E-03  4.00766E-16  1.43116E+01  2.94598E-05  1.0E-07
  6.200E+00  2.92452E-03  4.00657E-16  1.43077E+01  2.99547E-05  1.0E-07
  6.300E+00  3.01952E-03  4.00547E-16  1.43038E+01  3.04501E-05  1.0E-07
  6.400E+00  3.11604E-03  4.00435E-16  1.42998E+01  3.09462E-05  1.0E-07
  6.500E+00  3.21407E-03  4.00322E-16  1.42958E+01  3.14428E-05  1.0E-07
  6.600E+00  3.31362E-03  4.00207E-16  1.42916E+01  3.19400E-05  1.0E-07
  6.700E+00  3.41468E-03  4.00090E-16  1.42875E+01  3.24379E-05  1.0E-07
  6.800E+00  3.51725E-03  3.99971E-16  1.42832E+01  3.29363E-05  1.0E-07
  6.900E+00  3.62133E-03  3.99851E-16  1.42789E+01  3.34354E-05  1.0E-07
  7.000E+00  3.72692E-03  3.99729E-16  1.42746E+01  3.39352E-05  1.0E-07
  7.100E+00  3.83403E-03  3.99605E-16  1.42701E+01  3.44356E-05  1.0E-07
  7.200E+00  3.94265E-03  3.99479E-16  1.42657E+01  3.49367E-05  1.0E-07
  7.300E+00  4.05278E-03  3.99352E-16  1.42611E+01  3.54384E-05  1.0E-07
  7.400E+00  4.16442E-03  3.99223E-16  1.42565E+01  3.59408E-05  1.0E-07
  7.500E+00  4.27757E-03  3.99093E-16  1.42519E+01  3.64439E-05  1.0E-07
  7.600E+00  4.39223E-03  3.98960E-16  1.42471E+01  3.69477E-05  1.0E-07
  7.700E+00  4.50840E-03  3.98826E-16  1.42424E+01  3.74522E-05  1.0E-07
  7.800E+00  4.62608E-03  3.98691E-16  1.42375E+01  3.79574E-05  1.0E-07
  7.900E+00  4.74527E-03  3.98553E-16  1.42326E+01  3.84633E-05  1.0E-07
  8.000E+00  4.86597E-03  3.98414E-16  1.42276E+01  3.89700E-05  1.0E-07
  8.100E+00  4.98817E-03  3.98274E-16  1.42226E+01  3.94774E-05  1.0E-07
  8.200E+00  5.11188E-03  3.98131E-16  1.42175E+01  3.99856E-05  1.0E-07
  8.300E+00  5.23711E-03  3.97987E-16  1.42124E+01  4.04945E-05  1.0E-07
  8.400E+00  5.36383E-03  3.97841E-16  1.42072E+01  4.10042E-05  1.0E-07
  8.500E+00  5.49207E-03  3.97694E-16  1.42019E+01  4.15147E-05  1.0E-07
  8.600E+00  5.62181E-03  3.97545E-16  1.41966E+01  4.20259E-05  1.0E-07
  8.700E+00  5.75306E-03  3.97394E-16  1.41912E+01  4.25380E-05  1.0E-07
  8.800E+00  5.88581E-03  3.97241E-16  1.41858E+01  4.30508E-05  1.0E-07
  8.900E+00  6.02007E-03  3.97087E-16  1.41802E+01  4.35645E-05  1.0E-07
  9.000E+00  6.15583E-03  3.96932E-16  1.41747E+01  4.40790E-05  1.0E-07
  9.100E+00  6.29310E-03  3.96774E-16  1.41691E+01  4.45943E-05  1.0E-07
  9.200E+00  6.43187E-03  3.96615E-16  1.41634E+01  4.51105E-05  1.0E-07
  9.300E+00  6.57214E-03  3.96454E-16  1.41576E+01  4.56275E-05  1.0E-07
  9.400E+00  6.71392E-03  3.96292E-16  1.41518E+01  4.61453E-05  1.0E-07
  9.500E+00  6.85720E-03  3.96128E-16  1.41460E+01  4.66641E-05  1.0E-07
  9.600E+00  7.00198E-03  3.95962E-16  1.41401E+01  4.71837E-05  1.0E-07
  9.700E+00  7.14827E-03  3.95795E-16  1.41341E+01  4.77042E-05  1.0E-07
  9.800E+00  7.29605E-03  3.95626E-16  1.41280E+01  4.82256E-05  1.0E-07
  9.900E+00  7.44534E-03  3.95455E-16  1.41219E+01  4.87479E-05  1.0E-07
  1.000E+01  7.59612E-03  3.95283E-16  1.41158E+01  4.92710E-05  1.0E-07
  1.025E+01  7.97965E-03  3.94845E-16  1.41002E+01  5.05831E-05  1.0E-07
  1.050E+01  8.37255E-03  3.94397E-16  1.40842E+01  5.19010E-05  1.0E-07
  1.075E+01  8.77480E-03  3.93938E-16  1.40678E+01  5.32249E-05  1.0E-07
  1.100E+01  9.18641E-03  3.93470E-16  1.40511E+01  5.45550E-05  1.0E-07
  1.125E+01  9.60736E-03  3.92992E-16  1.40340E+01  5.58913E-05  1.0E-07
  1.150E+01  1.00376E-02  3.92503E-16  1.40165E+01  5.72341E-05  1.0E-07
  1.175E+01  1.04773E-02  3.92005E-16  1.39988E+01  5.85834E-05  1.0E-07
  1.200E+01  1.09262E-02  3.91497E-16  1.39806E+01  5.99394E-05  1.0E-07
  1.225E+01  1.13844E-02  3.90979E-16  1.39621E+01  6.13023E-05  1.0E-07
  1.250E+01  1.18520E-02  3.90451E-16  1.39433E+01  6.26720E-05  1.0E-07
  1.275E+01  1.23288E-02  3.89913E-16  1.39241E+01  6.40489E-05  1.0E-07
  1.300E+01  1.28150E-02  3.89366E-16  1.39045E+01  6.54329E-05  1.0E-07
  1.325E+01  1.33104E-02  3.88809E-16  1.38846E+01  6.68243E-05  1.0E-07
  1.350E+01  1.38150E-02  3.88242E-16  1.38644E+01  6.82231E-05  1.0E-07
  1.375E+01  1.43290E-02  3.87666E-16  1.38438E+01  6.96295E-05  1.0E-07
  1.400E+01  1.48521E-02  3.87081E-16  1.38229E+01  7.10437E-05  1.0E-07
  1.425E+01  1.53845E-02  3.86486E-16  1.38017E+01  7.24657E-05  1.0E-07
  1.450E+01  1.59262E-02  3.85881E-16  1.37801E+01  7.38956E-05  1.0E-07
  1.475E+01  1.64770E-02  3.85268E-16  1.37582E+01  7.53337E-05  1.0E-07
  1.500E+01  1.70371E-02  3.84645E-16  1.37359E+01  7.67800E-05  1.0E-07
