 #
 # Subroutine ELSEPA. Elastic scattering of electrons and positrons
 #                    by neutral atoms and positive ions
 #
 # Projectile: electron
 # Kinetic energy = 1.00000E+01 eV = 3.67493E-01 a.u.
 #
 #  ***  WARNING: Energy is too low.
 #                The reliability of the results is questionable.
 #
 # Element: Hg,  Z =  80,  atomic weight = 2.00590E+02 g/mol
 #
 # Nuclear model: Fermi distribution
 #                Average radius = 6.26355E-13 cm
 #                Skin thickness = 5.46000E-14 cm
 #
 # Number of electrons = 80
 #
 # Electron density: Read from file z_080.den   
 #                   Number of data points =  763
 #                   Volume integral = 8.00000E+01
 #
 # Furness-McCarthy exchange potential
 #
 # Total elastic cross section = 6.65345E-16 cm**2 = 2.37599E+01 a0**2
 # 1st transport cross section = 5.20793E-16 cm**2 = 1.85979E+01 a0**2
 # 2nd transport cross section = 4.08735E-16 cm**2 = 1.45962E+01 a0**2
 #
 #
 # Differential cross section:                       MU=(1-COS(THETA))/2
 #
 #  THETA        MU          DCS          DCS        Sherman      error
 #  (deg)                 (cm**2/sr)   (a0**2/sr)    function
 #----------------------------------------------------------------------
  0.000E+00  0.00000E+00  2.63295E-16  9.40242E+00  0.00000E+00  1.0E-07
  1.000E-04  7.61557E-13  2.63295E-16  9.40242E+00  1.38334E-07  1.0E-07
  1.250E-04  1.18994E-12  2.63295E-16  9.40242E+00  1.72917E-07  1.0E-07
  1.500E-04  1.71346E-12  2.63295E-16  9.40242E+00  2.07500E-07  1.0E-07
  1.750E-04  2.33225E-12  2.63295E-16  9.40242E+00  2.42084E-07  1.0E-07
  2.000E-04  3.04617E-12  2.63295E-16  9.40242E+00  2.76667E-07  1.0E-07
  2.250E-04  3.85530E-12  2.63295E-16  9.40242E+00  3.11251E-07  1.0E-07
  2.500E-04  4.75964E-12  2.63295E-16  9.40242E+00  3.45834E-07  1.0E-07
  2.750E-04  5.75917E-12  2.63295E-16  9.40242E+00  3.80417E-07  1.0E-07
  3.000E-04  6.85391E-12  2.63295E-16  9.40242E+00  4.15001E-07  1.0E-07
  3.250E-04  8.04379E-12  2.63295E-16  9.40242E+00  4.49584E-07  1.0E-07
  3.500E-04  9.32893E-12  2.63295E-16  9.40242E+00  4.84168E-07  1.0E-07
  3.750E-04  1.07092E-11  2.63295E-16  9.40242E+00  5.18751E-07  1.0E-07
  4.000E-04  1.21847E-11  2.63295E-16  9.40242E+00  5.53334E-07  1.0E-07
  4.250E-04  1.37554E-11  2.63295E-16  9.40242E+00  5.87918E-07  1.0E-07
  4.500E-04  1.54213E-11  2.63295E-16  9.40242E+00  6.22501E-07  1.0E-07
  4.750E-04  1.71823E-11  2.63295E-16  9.40242E+00  6.57085E-07  1.0E-07
  5.000E-04  1.90386E-11  2.63295E-16  9.40242E+00  6.91668E-07  1.0E-07
  5.250E-04  2.09900E-11  2.63295E-16  9.40242E+00  7.26251E-07  1.0E-07
  5.500E-04  2.30367E-11  2.63295E-16  9.40242E+00  7.60835E-07  1.0E-07
  5.750E-04  2.51785E-11  2.63295E-16  9.40242E+00  7.95418E-07  1.0E-07
  6.000E-04  2.74156E-11  2.63295E-16  9.40242E+00  8.30002E-07  1.0E-07
  6.250E-04  2.97478E-11  2.63295E-16  9.40242E+00  8.64585E-07  1.0E-07
  6.500E-04  3.21752E-11  2.63295E-16  9.40242E+00  8.99168E-07  1.0E-07
  6.750E-04  3.46979E-11  2.63295E-16  9.40242E+00  9.33752E-07  1.0E-07
  7.000E-04  3.73157E-11  2.63295E-16  9.40242E+00  9.68335E-07  1.0E-07
  7.250E-04  4.00286E-11  2.63295E-16  9.40242E+00  1.00292E-06  1.0E-07
  7.500E-04  4.28368E-11  2.63295E-16  9.40242E+00  1.03750E-06  1.0E-07
  7.750E-04  4.57402E-11  2.63295E-16  9.40242E+00  1.07209E-06  1.0E-07
  8.000E-04  4.87388E-11  2.63295E-16  9.40242E+00  1.10667E-06  1.0E-07
  8.250E-04  5.18325E-11  2.63295E-16  9.40242E+00  1.14125E-06  1.0E-07
  8.500E-04  5.50215E-11  2.63295E-16  9.40242E+00  1.17584E-06  1.0E-07
  8.750E-04  5.83057E-11  2.63295E-16  9.40242E+00  1.21042E-06  1.0E-07
  9.000E-04  6.16850E-11  2.63295E-16  9.40242E+00  1.24500E-06  1.0E-07
  9.250E-04  6.51595E-11  2.63295E-16  9.40242E+00  1.27959E-06  1.0E-07
  9.500E-04  6.87293E-11  2.63295E-16  9.40242E+00  1.31417E-06  1.0E-07
  9.750E-04  7.23943E-11  2.63295E-16  9.40242E+00  1.34875E-06  1.0E-07
  1.000E-03  7.61544E-11  2.63295E-16  9.40242E+00  1.38334E-06  1.0E-07
  1.250E-03  1.18991E-10  2.63295E-16  9.40242E+00  1.72917E-06  1.0E-07
  1.500E-03  1.71347E-10  2.63295E-16  9.40242E+00  2.07500E-06  1.0E-07
  1.750E-03  2.33223E-10  2.63295E-16  9.40242E+00  2.42084E-06  1.0E-07
  2.000E-03  3.04617E-10  2.63295E-16  9.40242E+00  2.76667E-06  1.0E-07
  2.250E-03  3.85531E-10  2.63295E-16  9.40242E+00  3.11251E-06  1.0E-07
  2.500E-03  4.75965E-10  2.63295E-16  9.40242E+00  3.45834E-06  1.0E-07
  2.750E-03  5.75917E-10  2.63295E-16  9.40242E+00  3.80417E-06  1.0E-07
  3.000E-03  6.85389E-10  2.63295E-16  9.40242E+00  4.15001E-06  1.0E-07
  3.250E-03  8.04380E-10  2.63295E-16  9.40242E+00  4.49584E-06  1.0E-07
  3.500E-03  9.32891E-10  2.63295E-16  9.40242E+00  4.84168E-06  1.0E-07
  3.750E-03  1.07092E-09  2.63295E-16  9.40242E+00  5.18751E-06  1.0E-07
  4.000E-03  1.21847E-09  2.63295E-16  9.40242E+00  5.53334E-06  1.0E-07
  4.250E-03  1.37554E-09  2.63295E-16  9.40242E+00  5.87918E-06  1.0E-07
  4.500E-03  1.54213E-09  2.63295E-16  9.40242E+00  6.22501E-06  1.0E-07
  4.750E-03  1.71823E-09  2.63295E-16  9.40242E+00  6.57085E-06  1.0E-07
  5.000E-03  1.90386E-09  2.63295E-16  9.40242E+00  6.91668E-06  1.0E-07
  5.250E-03  2.09900E-09  2.63295E-16  9.40242E+00  7.26251E-06  1.0E-07
  5.500E-03  2.30367E-09  2.63295E-16  9.40242E+00  7.60835E-06  1.0E-07
  5.750E-03  2.51785E-09  2.63295E-16  9.40242E+00  7.95418E-06  1.0E-07
  6.000E-03  2.74156E-09  2.63295E-16  9.40242E+00  8.30002E-06  1.0E-07
  6.250E-03  2.97478E-09  2.63295E-16  9.40242E+00  8.64585E-06  1.0E-07
  6.500E-03  3.21752E-09  2.63295E-16  9.40242E+00  8.99168E-06  1.0E-07
  6.750E-03  3.46978E-09  2.63295E-16  9.40242E+00  9.33752E-06  1.0E-07
  7.000E-03  3.73156E-09  2.63295E-16  9.40242E+00  9.68335E-06  1.0E-07
  7.250E-03  4.00286E-09  2.63295E-16  9.40242E+00  1.00292E-05  1.0E-07
  7.500E-03  4.28368E-09  2.63295E-16  9.40242E+00  1.03750E-05  1.0E-07
  7.750E-03  4.57402E-09  2.63295E-16  9.40242E+00  1.07209E-05  1.0E-07
  8.000E-03  4.87388E-09  2.63295E-16  9.40242E+00  1.10667E-05  1.0E-07
  8.250E-03  5.18326E-09  2.63295E-16  9.40242E+00  1.14125E-05  1.0E-07
  8.500E-03  5.50215E-09  2.63295E-16  9.40242E+00  1.17584E-05  1.0E-07
  8.750E-03  5.83057E-09  2.63295E-16  9.40242E+00  1.21042E-05  1.0E-07
  9.000E-03  6.16850E-09  2.63295E-16  9.40242E+00  1.24500E-05  1.0E-07
  9.250E-03  6.51596E-09  2.63295E-16  9.40242E+00  1.27959E-05  1.0E-07
  9.500E-03  6.87293E-09  2.63295E-16  9.40242E+00  1.31417E-05  1.0E-07
  9.750E-03  7.23942E-09  2.63295E-16  9.40242E+00  1.34875E-05  1.0E-07
  1.000E-02  7.61544E-09  2.63295E-16  9.40242E+00  1.38334E-05  1.0E-07
  1.250E-02  1.18991E-08  2.63295E-16  9.40242E+00  1.72917E-05  1.0E-07
  1.500E-02  1.71347E-08  2.63295E-16  9.40242E+00  2.07500E-05  1.0E-07
  1.750E-02  2.33223E-08  2.63295E-16  9.40242E+00  2.42084E-05  1.0E-07
  2.000E-02  3.04617E-08  2.63295E-16  9.40242E+00  2.76667E-05  1.0E-07
  2.250E-02  3.85531E-08  2.63295E-16  9.40242E+00  3.11251E-05  1.0E-07
  2.500E-02  4.75965E-08  2.63294E-16  9.40242E+00  3.45834E-05  1.0E-07
  2.750E-02  5.75917E-08  2.63294E-16  9.40242E+00  3.80417E-05  1.0E-07
  3.000E-02  6.85389E-08  2.63294E-16  9.40242E+00  4.15001E-05  1.0E-07
  3.250E-02  8.04380E-08  2.63294E-16  9.40241E+00  4.49584E-05  1.0E-07
  3.500E-02  9.32891E-08  2.63294E-16  9.40241E+00  4.84168E-05  1.0E-07
  3.750E-02  1.07092E-07  2.63294E-16  9.40241E+00  5.18751E-05  1.0E-07
  4.000E-02  1.21847E-07  2.63294E-16  9.40241E+00  5.53334E-05  1.0E-07
  4.250E-02  1.37554E-07  2.63294E-16  9.40241E+00  5.87918E-05  1.0E-07
  4.500E-02  1.54213E-07  2.63294E-16  9.40241E+00  6.22501E-05  1.0E-07
  4.750E-02  1.71823E-07  2.63294E-16  9.40241E+00  6.57085E-05  1.0E-07
  5.000E-02  1.90386E-07  2.63294E-16  9.40240E+00  6.91668E-05  1.0E-07
  5.250E-02  2.09900E-07  2.63294E-16  9.40240E+00  7.26252E-05  1.0E-07
  5.500E-02  2.30367E-07  2.63294E-16  9.40240E+00  7.60835E-05  1.0E-07
  5.750E-02  2.51785E-07  2.63294E-16  9.40240E+00  7.95418E-05  1.0E-07
  6.000E-02  2.74156E-07  2.63294E-16  9.40240E+00  8.30002E-05  1.0E-07
  6.250E-02  2.97478E-07  2.63294E-16  9.40239E+00  8.64585E-05  1.0E-07
  6.500E-02  3.21752E-07  2.63294E-16  9.40239E+00  8.99169E-05  1.0E-07
  6.750E-02  3.46978E-07  2.63294E-16  9.40239E+00  9.33752E-05  1.0E-07
  7.000E-02  3.73156E-07  2.63294E-16  9.40239E+00  9.68336E-05  1.0E-07
  7.250E-02  4.00286E-07  2.63294E-16  9.40238E+00  1.00292E-04  1.0E-07
  7.500E-02  4.28368E-07  2.63293E-16  9.40238E+00  1.03750E-04  1.0E-07
  7.750E-02  4.57402E-07  2.63293E-16  9.40238E+00  1.07209E-04  1.0E-07
  8.000E-02  4.87388E-07  2.63293E-16  9.40238E+00  1.10667E-04  1.0E-07
  8.250E-02  5.18325E-07  2.63293E-16  9.40237E+00  1.14125E-04  1.0E-07
  8.500E-02  5.50215E-07  2.63293E-16  9.40237E+00  1.17584E-04  1.0E-07
  8.750E-02  5.83057E-07  2.63293E-16  9.40237E+00  1.21042E-04  1.0E-07
  9.000E-02  6.16850E-07  2.63293E-16  9.40236E+00  1.24500E-04  1.0E-07
  9.250E-02  6.51596E-07  2.63293E-16  9.40236E+00  1.27959E-04  1.0E-07
  9.500E-02  6.87293E-07  2.63293E-16  9.40236E+00  1.31417E-04  1.0E-07
  9.750E-02  7.23942E-07  2.63293E-16  9.40235E+00  1.34875E-04  1.0E-07
  1.000E-01  7.61543E-07  2.63293E-16  9.40235E+00  1.38334E-04  1.0E-07
  1.250E-01  1.18991E-06  2.63292E-16  9.40231E+00  1.72917E-04  1.0E-07
  1.500E-01  1.71347E-06  2.63290E-16  9.40226E+00  2.07501E-04  1.0E-07
  1.750E-01  2.33223E-06  2.63289E-16  9.40220E+00  2.42084E-04  1.0E-07
  2.000E-01  3.04617E-06  2.63287E-16  9.40214E+00  2.76668E-04  1.0E-07
  2.250E-01  3.85531E-06  2.63285E-16  9.40206E+00  3.11252E-04  1.0E-07
  2.500E-01  4.75964E-06  2.63282E-16  9.40198E+00  3.45836E-04  1.0E-07
  2.750E-01  5.75916E-06  2.63280E-16  9.40188E+00  3.80420E-04  1.0E-07
  3.000E-01  6.85388E-06  2.63277E-16  9.40178E+00  4.15004E-04  1.0E-07
  3.250E-01  8.04378E-06  2.63274E-16  9.40167E+00  4.49589E-04  1.0E-07
  3.500E-01  9.32888E-06  2.63270E-16  9.40155E+00  4.84173E-04  1.0E-07
  3.750E-01  1.07092E-05  2.63267E-16  9.40142E+00  5.18758E-04  1.0E-07
  4.000E-01  1.21846E-05  2.63263E-16  9.40128E+00  5.53343E-04  1.0E-07
  4.250E-01  1.37553E-05  2.63259E-16  9.40114E+00  5.87928E-04  1.0E-07
  4.500E-01  1.54212E-05  2.63254E-16  9.40098E+00  6.22513E-04  1.0E-07
  4.750E-01  1.71822E-05  2.63250E-16  9.40082E+00  6.57099E-04  1.0E-07
  5.000E-01  1.90385E-05  2.63245E-16  9.40064E+00  6.91684E-04  1.0E-07
  5.250E-01  2.09899E-05  2.63240E-16  9.40046E+00  7.26270E-04  1.0E-07
  5.500E-01  2.30365E-05  2.63234E-16  9.40027E+00  7.60856E-04  1.0E-07
  5.750E-01  2.51783E-05  2.63229E-16  9.40007E+00  7.95443E-04  1.0E-07
  6.000E-01  2.74153E-05  2.63223E-16  9.39986E+00  8.30030E-04  1.0E-07
  6.250E-01  2.97475E-05  2.63217E-16  9.39964E+00  8.64617E-04  1.0E-07
  6.500E-01  3.21749E-05  2.63210E-16  9.39941E+00  8.99204E-04  1.0E-07
  6.750E-01  3.46974E-05  2.63204E-16  9.39918E+00  9.33792E-04  1.0E-07
  7.000E-01  3.73152E-05  2.63197E-16  9.39893E+00  9.68380E-04  1.0E-07
  7.250E-01  4.00281E-05  2.63190E-16  9.39868E+00  1.00297E-03  1.0E-07
  7.500E-01  4.28362E-05  2.63182E-16  9.39842E+00  1.03756E-03  1.0E-07
  7.750E-01  4.57395E-05  2.63175E-16  9.39815E+00  1.07215E-03  1.0E-07
  8.000E-01  4.87380E-05  2.63167E-16  9.39787E+00  1.10674E-03  1.0E-07
  8.250E-01  5.18317E-05  2.63159E-16  9.39758E+00  1.14133E-03  1.0E-07
  8.500E-01  5.50205E-05  2.63151E-16  9.39728E+00  1.17592E-03  1.0E-07
  8.750E-01  5.83045E-05  2.63142E-16  9.39697E+00  1.21051E-03  1.0E-07
  9.000E-01  6.16838E-05  2.63133E-16  9.39666E+00  1.24510E-03  1.0E-07
  9.250E-01  6.51582E-05  2.63124E-16  9.39633E+00  1.27969E-03  1.0E-07
  9.500E-01  6.87277E-05  2.63115E-16  9.39600E+00  1.31428E-03  1.0E-07
  9.750E-01  7.23925E-05  2.63105E-16  9.39566E+00  1.34887E-03  1.0E-07
  1.000E+00  7.61524E-05  2.63095E-16  9.39530E+00  1.38347E-03  1.0E-07
  1.100E+00  9.21439E-05  2.63053E-16  9.39381E+00  1.52184E-03  1.0E-07
  1.200E+00  1.09658E-04  2.63008E-16  9.39217E+00  1.66023E-03  1.0E-07
  1.300E+00  1.28695E-04  2.62958E-16  9.39040E+00  1.79862E-03  1.0E-07
  1.400E+00  1.49255E-04  2.62904E-16  9.38848E+00  1.93703E-03  1.0E-07
  1.500E+00  1.71338E-04  2.62846E-16  9.38642E+00  2.07544E-03  1.0E-07
  1.600E+00  1.94942E-04  2.62785E-16  9.38422E+00  2.21387E-03  1.0E-07
  1.700E+00  2.20070E-04  2.62719E-16  9.38187E+00  2.35231E-03  1.0E-07
  1.800E+00  2.46720E-04  2.62650E-16  9.37939E+00  2.49077E-03  1.0E-07
  1.900E+00  2.74892E-04  2.62576E-16  9.37676E+00  2.62923E-03  1.0E-07
  2.000E+00  3.04586E-04  2.62499E-16  9.37399E+00  2.76772E-03  1.0E-07
  2.100E+00  3.35803E-04  2.62417E-16  9.37109E+00  2.90621E-03  1.0E-07
  2.200E+00  3.68542E-04  2.62332E-16  9.36804E+00  3.04473E-03  1.0E-07
  2.300E+00  4.02802E-04  2.62242E-16  9.36485E+00  3.18326E-03  1.0E-07
  2.400E+00  4.38585E-04  2.62149E-16  9.36152E+00  3.32181E-03  1.0E-07
  2.500E+00  4.75889E-04  2.62052E-16  9.35805E+00  3.46038E-03  1.0E-07
  2.600E+00  5.14715E-04  2.61951E-16  9.35444E+00  3.59897E-03  1.0E-07
  2.700E+00  5.55063E-04  2.61846E-16  9.35069E+00  3.73758E-03  1.0E-07
  2.800E+00  5.96931E-04  2.61737E-16  9.34680E+00  3.87620E-03  1.0E-07
  2.900E+00  6.40321E-04  2.61624E-16  9.34278E+00  4.01486E-03  1.0E-07
  3.000E+00  6.85233E-04  2.61508E-16  9.33861E+00  4.15353E-03  1.0E-07
  3.100E+00  7.31665E-04  2.61387E-16  9.33431E+00  4.29223E-03  1.0E-07
  3.200E+00  7.79618E-04  2.61263E-16  9.32986E+00  4.43095E-03  1.0E-07
  3.300E+00  8.29092E-04  2.61134E-16  9.32528E+00  4.56969E-03  1.0E-07
  3.400E+00  8.80086E-04  2.61002E-16  9.32056E+00  4.70846E-03  1.0E-07
  3.500E+00  9.32601E-04  2.60866E-16  9.31570E+00  4.84726E-03  1.0E-07
  3.600E+00  9.86636E-04  2.60726E-16  9.31071E+00  4.98609E-03  1.0E-07
  3.700E+00  1.04219E-03  2.60583E-16  9.30558E+00  5.12494E-03  1.0E-07
  3.800E+00  1.09927E-03  2.60435E-16  9.30031E+00  5.26382E-03  1.0E-07
  3.900E+00  1.15786E-03  2.60284E-16  9.29490E+00  5.40273E-03  1.0E-07
  4.000E+00  1.21797E-03  2.60129E-16  9.28936E+00  5.54167E-03  1.0E-07
  4.100E+00  1.27961E-03  2.59970E-16  9.28368E+00  5.68065E-03  1.0E-07
  4.200E+00  1.34276E-03  2.59807E-16  9.27787E+00  5.81965E-03  1.0E-07
  4.300E+00  1.40743E-03  2.59640E-16  9.27192E+00  5.95869E-03  1.0E-07
  4.400E+00  1.47362E-03  2.59470E-16  9.26584E+00  6.09776E-03  1.0E-07
  4.500E+00  1.54133E-03  2.59296E-16  9.25962E+00  6.23686E-03  1.0E-07
  4.600E+00  1.61056E-03  2.59118E-16  9.25327E+00  6.37600E-03  1.0E-07
  4.700E+00  1.68131E-03  2.58936E-16  9.24678E+00  6.51517E-03  1.0E-07
  4.800E+00  1.75357E-03  2.58751E-16  9.24016E+00  6.65438E-03  1.0E-07
  4.900E+00  1.82735E-03  2.58562E-16  9.23341E+00  6.79362E-03  1.0E-07
  5.000E+00  1.90265E-03  2.58369E-16  9.22652E+00  6.93291E-03  1.0E-07
  5.100E+00  1.97947E-03  2.58172E-16  9.21950E+00  7.07223E-03  1.0E-07
  5.200E+00  2.05780E-03  2.57972E-16  9.21235E+00  7.21159E-03  1.0E-07
  5.300E+00  2.13765E-03  2.57768E-16  9.20507E+00  7.35099E-03  1.0E-07
  5.400E+00  2.21902E-03  2.57561E-16  9.19766E+00  7.49043E-03  1.0E-07
  5.500E+00  2.30190E-03  2.57349E-16  9.19011E+00  7.62992E-03  1.0E-07
  5.600E+00  2.38630E-03  2.57134E-16  9.18244E+00  7.76944E-03  1.0E-07
  5.700E+00  2.47222E-03  2.56916E-16  9.17463E+00  7.90901E-03  1.0E-07
  5.800E+00  2.55965E-03  2.56694E-16  9.16670E+00  8.04862E-03  1.0E-07
  5.900E+00  2.64859E-03  2.56468E-16  9.15864E+00  8.18827E-03  1.0E-07
  6.000E+00  2.73905E-03  2.56239E-16  9.15045E+00  8.32797E-03  1.0E-07
  6.100E+00  2.83103E-03  2.56006E-16  9.14213E+00  8.46772E-03  1.0E-07
  6.200E+00  2.92452E-03  2.55769E-16  9.13368E+00  8.60751E-03  1.0E-07
  6.300E+00  3.01952E-03  2.55529E-16  9.12510E+00  8.74734E-03  1.0E-07
  6.400E+00  3.11604E-03  2.55285E-16  9.11640E+00  8.88723E-03  1.0E-07
  6.500E+00  3.21407E-03  2.55038E-16  9.10758E+00  9.02716E-03  1.0E-07
  6.600E+00  3.31362E-03  2.54787E-16  9.09862E+00  9.16715E-03  1.0E-07
  6.700E+00  3.41468E-03  2.54533E-16  9.08955E+00  9.30718E-03  1.0E-07
  6.800E+00  3.51725E-03  2.54275E-16  9.08034E+00  9.44726E-03  1.0E-07
  6.900E+00  3.62133E-03  2.54014E-16  9.07102E+00  9.58739E-03  1.0E-07
  7.000E+00  3.72692E-03  2.53750E-16  9.06157E+00  9.72758E-03  1.0E-07
  7.100E+00  3.83403E-03  2.53482E-16  9.05199E+00  9.86782E-03  1.0E-07
  7.200E+00  3.94265E-03  2.53210E-16  9.04229E+00  1.00081E-02  1.0E-07
  7.300E+00  4.05278E-03  2.52935E-16  9.03248E+00  1.01485E-02  1.0E-07
  7.400E+00  4.16442E-03  2.52657E-16  9.02254E+00  1.02889E-02  1.0E-07
  7.500E+00  4.27757E-03  2.52375E-16  9.01247E+00  1.04293E-02  1.0E-07
  7.600E+00  4.39223E-03  2.52090E-16  9.00229E+00  1.05698E-02  1.0E-07
  7.700E+00  4.50840E-03  2.51801E-16  8.99199E+00  1.07104E-02  1.0E-07
  7.800E+00  4.62608E-03  2.51510E-16  8.98157E+00  1.08510E-02  1.0E-07
  7.900E+00  4.74527E-03  2.51214E-16  8.97103E+00  1.09917E-02  1.0E-07
  8.000E+00  4.86597E-03  2.50916E-16  8.96037E+00  1.11324E-02  1.0E-07
  8.100E+00  4.98817E-03  2.50614E-16  8.94960E+00  1.12732E-02  1.0E-07
  8.200E+00  5.11188E-03  2.50309E-16  8.93870E+00  1.14141E-02  1.0E-07
  8.300E+00  5.23711E-03  2.50001E-16  8.92769E+00  1.15550E-02  1.0E-07
  8.400E+00  5.36383E-03  2.49689E-16  8.91657E+00  1.16960E-02  1.0E-07
  8.500E+00  5.49207E-03  2.49375E-16  8.90533E+00  1.18370E-02  1.0E-07
  8.600E+00  5.62181E-03  2.49057E-16  8.89397E+00  1.19781E-02  1.0E-07
  8.700E+00  5.75306E-03  2.48735E-16  8.88251E+00  1.21193E-02  1.0E-07
  8.800E+00  5.88581E-03  2.48411E-16  8.87092E+00  1.22605E-02  1.0E-07
  8.900E+00  6.02007E-03  2.48084E-16  8.85923E+00  1.24018E-02  1.0E-07
  9.000E+00  6.15583E-03  2.47753E-16  8.84742E+00  1.25432E-02  1.0E-07
  9.100E+00  6.29310E-03  2.47419E-16  8.83550E+00  1.26846E-02  1.0E-07
  9.200E+00  6.43187E-03  2.47082E-16  8.82347E+00  1.28261E-02  1.0E-07
  9.300E+00  6.57214E-03  2.46742E-16  8.81133E+00  1.29677E-02  1.0E-07
  9.400E+00  6.71392E-03  2.46399E-16  8.79908E+00  1.31093E-02  1.0E-07
  9.500E+00  6.85720E-03  2.46053E-16  8.78673E+00  1.32510E-02  1.0E-07
  9.600E+00  7.00198E-03  2.45704E-16  8.77426E+00  1.33928E-02  1.0E-07
  9.700E+00  7.14827E-03  2.45352E-16  8.76169E+00  1.35346E-02  1.0E-07
  9.800E+00  7.29605E-03  2.44997E-16  8.74901E+00  1.36765E-02  1.0E-07
  9.900E+00  7.44534E-03  2.44639E-16  8.73622E+00  1.38185E-02  1.0E-07
  1.000E+01  7.59612E-03  2.44278E-16  8.72333E+00  1.39605E-02  1.0E-07
  1.025E+01  7.97965E-03  2.43363E-16  8.69064E+00  1.43159E-02  1.0E-07
  1.050E+01  8.37255E-03  2.42429E-16  8.65730E+00  1.46718E-02  1.0E-07
  1.075E+01  8.77480E-03  2.41478E-16  8.62334E+00  1.50282E-02  1.0E-07
  1.100E+01  9.18641E-03  2.40509E-16  8.58875E+00  1.53850E-02  1.0E-07
  1.125E+01  9.60736E-03  2.39524E-16  8.55355E+00  1.57423E-02  1.0E-07
  1.150E+01  1.00376E-02  2.38521E-16  8.51775E+00  1.61001E-02  1.0E-07
  1.175E+01  1.04773E-02  2.37502E-16  8.48136E+00  1.64584E-02  1.0E-07
  1.200E+01  1.09262E-02  2.36467E-16  8.44440E+00  1.68172E-02  1.0E-07
  1.225E+01  1.13844E-02  2.35416E-16  8.40687E+00  1.71766E-02  1.0E-07
  1.250E+01  1.18520E-02  2.34350E-16  8.36879E+00  1.75364E-02  1.0E-07
  1.275E+01  1.23288E-02  2.33268E-16  8.33017E+00  1.78968E-02  1.0E-07
  1.300E+01  1.28150E-02  2.32172E-16  8.29102E+00  1.82578E-02  1.0E-07
  1.325E+01  1.33104E-02  2.31061E-16  8.25135E+00  1.86193E-02  1.0E-07
  1.350E+01  1.38150E-02  2.29937E-16  8.21118E+00  1.89814E-02  1.0E-07
  1.375E+01  1.43290E-02  2.28798E-16  8.17052E+00  1.93440E-02  1.0E-07
  1.400E+01  1.48521E-02  2.27646E-16  8.12938E+00  1.97072E-02  1.0E-07
  1.425E+01  1.53845E-02  2.26481E-16  8.08778E+00  2.00710E-02  1.0E-07
  1.450E+01  1.59262E-02  2.25303E-16  8.04572E+00  2.04354E-02  1.0E-07
  1.475E+01  1.64770E-02  2.24113E-16  8.00322E+00  2.08004E-02  1.0E-07
  1.500E+01  1.70371E-02  2.22911E-16  7.96029E+00  2.11660E-02  1.0E-07
