 #
 # Subroutine ELSEPA. Elastic scattering of electrons and positrons
 #                    by neutral atoms and positive ions
 #
 # Projectile: electron
 # Kinetic energy = 9.00000E+01 eV = 3.30744E+00 a.u.
 #
 #  ***  WARNING: Energy is too low.
 #                The reliability of the results is questionable.
 #
 # Element: Hg,  Z =  80,  atomic weight = 2.00590E+02 g/mol
 #
 # Nuclear model: Fermi distribution
 #                Average radius = 6.26355E-13 cm
 #                Skin thickness = 5.46000E-14 cm
 #
 # Number of electrons = 80
 #
 # Electron density: Read from file z_080.den   
 #                   Number of data points =  763
 #                   Volume integral = 8.00000E+01
 #
 # Furness-McCarthy exchange potential
 #
 # Total elastic cross section = 9.39213E-16 cm**2 = 3.35399E+01 a0**2
 # 1st transport cross section = 2.52591E-16 cm**2 = 9.02018E+00 a0**2
 # 2nd transport cross section = 4.16528E-16 cm**2 = 1.48745E+01 a0**2
 #
 #
 # Differential cross section:                       MU=(1-COS(THETA))/2
 #
 #  THETA        MU          DCS          DCS        Sherman      error
 #  (deg)                 (cm**2/sr)   (a0**2/sr)    function
 #----------------------------------------------------------------------
  0.000E+00  0.00000E+00  1.64890E-15  5.88834E+01  0.00000E+00  1.0E-07
  1.000E-04  7.61557E-13  1.64890E-15  5.88834E+01  2.42331E-08  1.0E-07
  1.250E-04  1.18994E-12  1.64890E-15  5.88834E+01  3.02914E-08  1.0E-07
  1.500E-04  1.71346E-12  1.64890E-15  5.88834E+01  3.63497E-08  1.0E-07
  1.750E-04  2.33225E-12  1.64890E-15  5.88834E+01  4.24080E-08  1.0E-07
  2.000E-04  3.04617E-12  1.64890E-15  5.88834E+01  4.84663E-08  1.0E-07
  2.250E-04  3.85530E-12  1.64890E-15  5.88834E+01  5.45246E-08  1.0E-07
  2.500E-04  4.75964E-12  1.64890E-15  5.88834E+01  6.05828E-08  1.0E-07
  2.750E-04  5.75917E-12  1.64890E-15  5.88834E+01  6.66411E-08  1.0E-07
  3.000E-04  6.85391E-12  1.64890E-15  5.88834E+01  7.26994E-08  1.0E-07
  3.250E-04  8.04379E-12  1.64890E-15  5.88834E+01  7.87577E-08  1.0E-07
  3.500E-04  9.32893E-12  1.64890E-15  5.88834E+01  8.48160E-08  1.0E-07
  3.750E-04  1.07092E-11  1.64890E-15  5.88834E+01  9.08743E-08  1.0E-07
  4.000E-04  1.21847E-11  1.64890E-15  5.88834E+01  9.69325E-08  1.0E-07
  4.250E-04  1.37554E-11  1.64890E-15  5.88834E+01  1.02991E-07  1.0E-07
  4.500E-04  1.54213E-11  1.64890E-15  5.88834E+01  1.09049E-07  1.0E-07
  4.750E-04  1.71823E-11  1.64890E-15  5.88834E+01  1.15107E-07  1.0E-07
  5.000E-04  1.90386E-11  1.64890E-15  5.88834E+01  1.21166E-07  1.0E-07
  5.250E-04  2.09900E-11  1.64890E-15  5.88834E+01  1.27224E-07  1.0E-07
  5.500E-04  2.30367E-11  1.64890E-15  5.88834E+01  1.33282E-07  1.0E-07
  5.750E-04  2.51785E-11  1.64890E-15  5.88834E+01  1.39341E-07  1.0E-07
  6.000E-04  2.74156E-11  1.64890E-15  5.88834E+01  1.45399E-07  1.0E-07
  6.250E-04  2.97478E-11  1.64890E-15  5.88834E+01  1.51457E-07  1.0E-07
  6.500E-04  3.21752E-11  1.64890E-15  5.88834E+01  1.57515E-07  1.0E-07
  6.750E-04  3.46979E-11  1.64890E-15  5.88834E+01  1.63574E-07  1.0E-07
  7.000E-04  3.73157E-11  1.64890E-15  5.88834E+01  1.69632E-07  1.0E-07
  7.250E-04  4.00286E-11  1.64890E-15  5.88834E+01  1.75690E-07  1.0E-07
  7.500E-04  4.28368E-11  1.64890E-15  5.88834E+01  1.81749E-07  1.0E-07
  7.750E-04  4.57402E-11  1.64890E-15  5.88834E+01  1.87807E-07  1.0E-07
  8.000E-04  4.87388E-11  1.64890E-15  5.88834E+01  1.93865E-07  1.0E-07
  8.250E-04  5.18325E-11  1.64890E-15  5.88834E+01  1.99923E-07  1.0E-07
  8.500E-04  5.50215E-11  1.64890E-15  5.88834E+01  2.05982E-07  1.0E-07
  8.750E-04  5.83057E-11  1.64890E-15  5.88834E+01  2.12040E-07  1.0E-07
  9.000E-04  6.16850E-11  1.64890E-15  5.88834E+01  2.18098E-07  1.0E-07
  9.250E-04  6.51595E-11  1.64890E-15  5.88834E+01  2.24156E-07  1.0E-07
  9.500E-04  6.87293E-11  1.64890E-15  5.88834E+01  2.30215E-07  1.0E-07
  9.750E-04  7.23943E-11  1.64890E-15  5.88834E+01  2.36273E-07  1.0E-07
  1.000E-03  7.61544E-11  1.64890E-15  5.88834E+01  2.42331E-07  1.0E-07
  1.250E-03  1.18991E-10  1.64890E-15  5.88834E+01  3.02914E-07  1.0E-07
  1.500E-03  1.71347E-10  1.64890E-15  5.88834E+01  3.63497E-07  1.0E-07
  1.750E-03  2.33223E-10  1.64890E-15  5.88834E+01  4.24080E-07  1.0E-07
  2.000E-03  3.04617E-10  1.64890E-15  5.88834E+01  4.84663E-07  1.0E-07
  2.250E-03  3.85531E-10  1.64890E-15  5.88834E+01  5.45246E-07  1.0E-07
  2.500E-03  4.75965E-10  1.64890E-15  5.88834E+01  6.05828E-07  1.0E-07
  2.750E-03  5.75917E-10  1.64890E-15  5.88834E+01  6.66411E-07  1.0E-07
  3.000E-03  6.85389E-10  1.64890E-15  5.88834E+01  7.26994E-07  1.0E-07
  3.250E-03  8.04380E-10  1.64890E-15  5.88834E+01  7.87577E-07  1.0E-07
  3.500E-03  9.32891E-10  1.64890E-15  5.88834E+01  8.48160E-07  1.0E-07
  3.750E-03  1.07092E-09  1.64890E-15  5.88834E+01  9.08743E-07  1.0E-07
  4.000E-03  1.21847E-09  1.64890E-15  5.88834E+01  9.69325E-07  1.0E-07
  4.250E-03  1.37554E-09  1.64890E-15  5.88834E+01  1.02991E-06  1.0E-07
  4.500E-03  1.54213E-09  1.64890E-15  5.88834E+01  1.09049E-06  1.0E-07
  4.750E-03  1.71823E-09  1.64890E-15  5.88834E+01  1.15107E-06  1.0E-07
  5.000E-03  1.90386E-09  1.64890E-15  5.88834E+01  1.21166E-06  1.0E-07
  5.250E-03  2.09900E-09  1.64890E-15  5.88834E+01  1.27224E-06  1.0E-07
  5.500E-03  2.30367E-09  1.64890E-15  5.88834E+01  1.33282E-06  1.0E-07
  5.750E-03  2.51785E-09  1.64890E-15  5.88834E+01  1.39341E-06  1.0E-07
  6.000E-03  2.74156E-09  1.64890E-15  5.88834E+01  1.45399E-06  1.0E-07
  6.250E-03  2.97478E-09  1.64890E-15  5.88834E+01  1.51457E-06  1.0E-07
  6.500E-03  3.21752E-09  1.64890E-15  5.88834E+01  1.57515E-06  1.0E-07
  6.750E-03  3.46978E-09  1.64890E-15  5.88834E+01  1.63574E-06  1.0E-07
  7.000E-03  3.73156E-09  1.64890E-15  5.88834E+01  1.69632E-06  1.0E-07
  7.250E-03  4.00286E-09  1.64890E-15  5.88834E+01  1.75690E-06  1.0E-07
  7.500E-03  4.28368E-09  1.64890E-15  5.88834E+01  1.81749E-06  1.0E-07
  7.750E-03  4.57402E-09  1.64890E-15  5.88834E+01  1.87807E-06  1.0E-07
  8.000E-03  4.87388E-09  1.64890E-15  5.88834E+01  1.93865E-06  1.0E-07
  8.250E-03  5.18326E-09  1.64890E-15  5.88834E+01  1.99923E-06  1.0E-07
  8.500E-03  5.50215E-09  1.64890E-15  5.88834E+01  2.05982E-06  1.0E-07
  8.750E-03  5.83057E-09  1.64890E-15  5.88834E+01  2.12040E-06  1.0E-07
  9.000E-03  6.16850E-09  1.64890E-15  5.88834E+01  2.18098E-06  1.0E-07
  9.250E-03  6.51596E-09  1.64890E-15  5.88834E+01  2.24157E-06  1.0E-07
  9.500E-03  6.87293E-09  1.64890E-15  5.88834E+01  2.30215E-06  1.0E-07
  9.750E-03  7.23942E-09  1.64890E-15  5.88834E+01  2.36273E-06  1.0E-07
  1.000E-02  7.61544E-09  1.64890E-15  5.88834E+01  2.42331E-06  1.0E-07
  1.250E-02  1.18991E-08  1.64890E-15  5.88834E+01  3.02914E-06  1.0E-07
  1.500E-02  1.71347E-08  1.64890E-15  5.88834E+01  3.63497E-06  1.0E-07
  1.750E-02  2.33223E-08  1.64890E-15  5.88834E+01  4.24081E-06  1.0E-07
  2.000E-02  3.04617E-08  1.64890E-15  5.88834E+01  4.84664E-06  1.0E-07
  2.250E-02  3.85531E-08  1.64890E-15  5.88833E+01  5.45247E-06  1.0E-07
  2.500E-02  4.75965E-08  1.64890E-15  5.88833E+01  6.05830E-06  1.0E-07
  2.750E-02  5.75917E-08  1.64890E-15  5.88833E+01  6.66414E-06  1.0E-07
  3.000E-02  6.85389E-08  1.64890E-15  5.88833E+01  7.26998E-06  1.0E-07
  3.250E-02  8.04380E-08  1.64890E-15  5.88832E+01  7.87582E-06  1.0E-07
  3.500E-02  9.32891E-08  1.64890E-15  5.88832E+01  8.48166E-06  1.0E-07
  3.750E-02  1.07092E-07  1.64890E-15  5.88832E+01  9.08750E-06  1.0E-07
  4.000E-02  1.21847E-07  1.64890E-15  5.88831E+01  9.69334E-06  1.0E-07
  4.250E-02  1.37554E-07  1.64889E-15  5.88831E+01  1.02992E-05  1.0E-07
  4.500E-02  1.54213E-07  1.64889E-15  5.88831E+01  1.09050E-05  1.0E-07
  4.750E-02  1.71823E-07  1.64889E-15  5.88830E+01  1.15109E-05  1.0E-07
  5.000E-02  1.90386E-07  1.64889E-15  5.88830E+01  1.21167E-05  1.0E-07
  5.250E-02  2.09900E-07  1.64889E-15  5.88829E+01  1.27226E-05  1.0E-07
  5.500E-02  2.30367E-07  1.64889E-15  5.88829E+01  1.33285E-05  1.0E-07
  5.750E-02  2.51785E-07  1.64889E-15  5.88829E+01  1.39343E-05  1.0E-07
  6.000E-02  2.74156E-07  1.64889E-15  5.88828E+01  1.45402E-05  1.0E-07
  6.250E-02  2.97478E-07  1.64888E-15  5.88827E+01  1.51460E-05  1.0E-07
  6.500E-02  3.21752E-07  1.64888E-15  5.88827E+01  1.57519E-05  1.0E-07
  6.750E-02  3.46978E-07  1.64888E-15  5.88826E+01  1.63578E-05  1.0E-07
  7.000E-02  3.73156E-07  1.64888E-15  5.88826E+01  1.69637E-05  1.0E-07
  7.250E-02  4.00286E-07  1.64888E-15  5.88825E+01  1.75695E-05  1.0E-07
  7.500E-02  4.28368E-07  1.64888E-15  5.88825E+01  1.81754E-05  1.0E-07
  7.750E-02  4.57402E-07  1.64887E-15  5.88824E+01  1.87813E-05  1.0E-07
  8.000E-02  4.87388E-07  1.64887E-15  5.88823E+01  1.93872E-05  1.0E-07
  8.250E-02  5.18325E-07  1.64887E-15  5.88822E+01  1.99931E-05  1.0E-07
  8.500E-02  5.50215E-07  1.64887E-15  5.88822E+01  2.05990E-05  1.0E-07
  8.750E-02  5.83057E-07  1.64887E-15  5.88821E+01  2.12049E-05  1.0E-07
  9.000E-02  6.16850E-07  1.64886E-15  5.88820E+01  2.18108E-05  1.0E-07
  9.250E-02  6.51596E-07  1.64886E-15  5.88819E+01  2.24167E-05  1.0E-07
  9.500E-02  6.87293E-07  1.64886E-15  5.88819E+01  2.30226E-05  1.0E-07
  9.750E-02  7.23942E-07  1.64886E-15  5.88818E+01  2.36286E-05  1.0E-07
  1.000E-01  7.61543E-07  1.64886E-15  5.88817E+01  2.42345E-05  1.0E-07
  1.250E-01  1.18991E-06  1.64883E-15  5.88807E+01  3.02941E-05  1.0E-07
  1.500E-01  1.71347E-06  1.64880E-15  5.88795E+01  3.63543E-05  1.0E-07
  1.750E-01  2.33223E-06  1.64876E-15  5.88781E+01  4.24153E-05  1.0E-07
  2.000E-01  3.04617E-06  1.64871E-15  5.88765E+01  4.84772E-05  1.0E-07
  2.250E-01  3.85531E-06  1.64866E-15  5.88747E+01  5.45401E-05  1.0E-07
  2.500E-01  4.75964E-06  1.64860E-15  5.88726E+01  6.06042E-05  1.0E-07
  2.750E-01  5.75916E-06  1.64854E-15  5.88704E+01  6.66695E-05  1.0E-07
  3.000E-01  6.85388E-06  1.64847E-15  5.88679E+01  7.27363E-05  1.0E-07
  3.250E-01  8.04378E-06  1.64839E-15  5.88652E+01  7.88045E-05  1.0E-07
  3.500E-01  9.32888E-06  1.64831E-15  5.88623E+01  8.48745E-05  1.0E-07
  3.750E-01  1.07092E-05  1.64822E-15  5.88592E+01  9.09462E-05  1.0E-07
  4.000E-01  1.21846E-05  1.64813E-15  5.88558E+01  9.70199E-05  1.0E-07
  4.250E-01  1.37553E-05  1.64803E-15  5.88523E+01  1.03096E-04  1.0E-07
  4.500E-01  1.54212E-05  1.64793E-15  5.88485E+01  1.09174E-04  1.0E-07
  4.750E-01  1.71822E-05  1.64781E-15  5.88445E+01  1.15254E-04  1.0E-07
  5.000E-01  1.90385E-05  1.64770E-15  5.88403E+01  1.21336E-04  1.0E-07
  5.250E-01  2.09899E-05  1.64757E-15  5.88359E+01  1.27422E-04  1.0E-07
  5.500E-01  2.30365E-05  1.64744E-15  5.88313E+01  1.33509E-04  1.0E-07
  5.750E-01  2.51783E-05  1.64731E-15  5.88264E+01  1.39600E-04  1.0E-07
  6.000E-01  2.74153E-05  1.64717E-15  5.88214E+01  1.45694E-04  1.0E-07
  6.250E-01  2.97475E-05  1.64702E-15  5.88161E+01  1.51790E-04  1.0E-07
  6.500E-01  3.21749E-05  1.64687E-15  5.88106E+01  1.57890E-04  1.0E-07
  6.750E-01  3.46974E-05  1.64671E-15  5.88049E+01  1.63994E-04  1.0E-07
  7.000E-01  3.73152E-05  1.64654E-15  5.87990E+01  1.70100E-04  1.0E-07
  7.250E-01  4.00281E-05  1.64637E-15  5.87929E+01  1.76211E-04  1.0E-07
  7.500E-01  4.28362E-05  1.64619E-15  5.87865E+01  1.82325E-04  1.0E-07
  7.750E-01  4.57395E-05  1.64601E-15  5.87800E+01  1.88443E-04  1.0E-07
  8.000E-01  4.87380E-05  1.64582E-15  5.87732E+01  1.94564E-04  1.0E-07
  8.250E-01  5.18317E-05  1.64562E-15  5.87662E+01  2.00690E-04  1.0E-07
  8.500E-01  5.50205E-05  1.64542E-15  5.87590E+01  2.06820E-04  1.0E-07
  8.750E-01  5.83045E-05  1.64521E-15  5.87516E+01  2.12955E-04  1.0E-07
  9.000E-01  6.16838E-05  1.64500E-15  5.87440E+01  2.19094E-04  1.0E-07
  9.250E-01  6.51582E-05  1.64478E-15  5.87361E+01  2.25238E-04  1.0E-07
  9.500E-01  6.87277E-05  1.64455E-15  5.87281E+01  2.31386E-04  1.0E-07
  9.750E-01  7.23925E-05  1.64432E-15  5.87198E+01  2.37539E-04  1.0E-07
  1.000E+00  7.61524E-05  1.64408E-15  5.87113E+01  2.43698E-04  1.0E-07
  1.100E+00  9.21439E-05  1.64308E-15  5.86753E+01  2.68383E-04  1.0E-07
  1.200E+00  1.09658E-04  1.64197E-15  5.86358E+01  2.93159E-04  1.0E-07
  1.300E+00  1.28695E-04  1.64077E-15  5.85930E+01  3.18034E-04  1.0E-07
  1.400E+00  1.49255E-04  1.63948E-15  5.85468E+01  3.43016E-04  1.0E-07
  1.500E+00  1.71338E-04  1.63809E-15  5.84972E+01  3.68113E-04  1.0E-07
  1.600E+00  1.94942E-04  1.63661E-15  5.84442E+01  3.93333E-04  1.0E-07
  1.700E+00  2.20070E-04  1.63503E-15  5.83880E+01  4.18686E-04  1.0E-07
  1.800E+00  2.46720E-04  1.63336E-15  5.83283E+01  4.44179E-04  1.0E-07
  1.900E+00  2.74892E-04  1.63160E-15  5.82654E+01  4.69820E-04  1.0E-07
  2.000E+00  3.04586E-04  1.62974E-15  5.81992E+01  4.95619E-04  1.0E-07
  2.100E+00  3.35803E-04  1.62780E-15  5.81297E+01  5.21584E-04  1.0E-07
  2.200E+00  3.68542E-04  1.62576E-15  5.80569E+01  5.47722E-04  1.0E-07
  2.300E+00  4.02802E-04  1.62363E-15  5.79809E+01  5.74044E-04  1.0E-07
  2.400E+00  4.38585E-04  1.62141E-15  5.79016E+01  6.00556E-04  1.0E-07
  2.500E+00  4.75889E-04  1.61910E-15  5.78191E+01  6.27268E-04  1.0E-07
  2.600E+00  5.14715E-04  1.61670E-15  5.77334E+01  6.54188E-04  1.0E-07
  2.700E+00  5.55063E-04  1.61421E-15  5.76446E+01  6.81325E-04  1.0E-07
  2.800E+00  5.96931E-04  1.61164E-15  5.75526E+01  7.08688E-04  1.0E-07
  2.900E+00  6.40321E-04  1.60897E-15  5.74575E+01  7.36285E-04  1.0E-07
  3.000E+00  6.85233E-04  1.60622E-15  5.73592E+01  7.64125E-04  1.0E-07
  3.100E+00  7.31665E-04  1.60338E-15  5.72579E+01  7.92217E-04  1.0E-07
  3.200E+00  7.79618E-04  1.60046E-15  5.71535E+01  8.20569E-04  1.0E-07
  3.300E+00  8.29092E-04  1.59745E-15  5.70461E+01  8.49191E-04  1.0E-07
  3.400E+00  8.80086E-04  1.59436E-15  5.69356E+01  8.78091E-04  1.0E-07
  3.500E+00  9.32601E-04  1.59118E-15  5.68222E+01  9.07279E-04  1.0E-07
  3.600E+00  9.86636E-04  1.58792E-15  5.67058E+01  9.36762E-04  1.0E-07
  3.700E+00  1.04219E-03  1.58458E-15  5.65865E+01  9.66551E-04  1.0E-07
  3.800E+00  1.09927E-03  1.58116E-15  5.64642E+01  9.96655E-04  1.0E-07
  3.900E+00  1.15786E-03  1.57766E-15  5.63391E+01  1.02708E-03  1.0E-07
  4.000E+00  1.21797E-03  1.57407E-15  5.62111E+01  1.05784E-03  1.0E-07
  4.100E+00  1.27961E-03  1.57041E-15  5.60803E+01  1.08894E-03  1.0E-07
  4.200E+00  1.34276E-03  1.56667E-15  5.59467E+01  1.12040E-03  1.0E-07
  4.300E+00  1.40743E-03  1.56285E-15  5.58104E+01  1.15221E-03  1.0E-07
  4.400E+00  1.47362E-03  1.55895E-15  5.56713E+01  1.18439E-03  1.0E-07
  4.500E+00  1.54133E-03  1.55498E-15  5.55295E+01  1.21695E-03  1.0E-07
  4.600E+00  1.61056E-03  1.55094E-15  5.53850E+01  1.24990E-03  1.0E-07
  4.700E+00  1.68131E-03  1.54682E-15  5.52379E+01  1.28325E-03  1.0E-07
  4.800E+00  1.75357E-03  1.54263E-15  5.50882E+01  1.31701E-03  1.0E-07
  4.900E+00  1.82735E-03  1.53836E-15  5.49359E+01  1.35119E-03  1.0E-07
  5.000E+00  1.90265E-03  1.53403E-15  5.47811E+01  1.38579E-03  1.0E-07
  5.100E+00  1.97947E-03  1.52962E-15  5.46238E+01  1.42083E-03  1.0E-07
  5.200E+00  2.05780E-03  1.52515E-15  5.44640E+01  1.45631E-03  1.0E-07
  5.300E+00  2.13765E-03  1.52060E-15  5.43017E+01  1.49226E-03  1.0E-07
  5.400E+00  2.21902E-03  1.51599E-15  5.41371E+01  1.52867E-03  1.0E-07
  5.500E+00  2.30190E-03  1.51132E-15  5.39701E+01  1.56555E-03  1.0E-07
  5.600E+00  2.38630E-03  1.50657E-15  5.38007E+01  1.60293E-03  1.0E-07
  5.700E+00  2.47222E-03  1.50177E-15  5.36291E+01  1.64080E-03  1.0E-07
  5.800E+00  2.55965E-03  1.49690E-15  5.34552E+01  1.67917E-03  1.0E-07
  5.900E+00  2.64859E-03  1.49196E-15  5.32790E+01  1.71807E-03  1.0E-07
  6.000E+00  2.73905E-03  1.48697E-15  5.31007E+01  1.75749E-03  1.0E-07
  6.100E+00  2.83103E-03  1.48192E-15  5.29202E+01  1.79745E-03  1.0E-07
  6.200E+00  2.92452E-03  1.47680E-15  5.27376E+01  1.83797E-03  1.0E-07
  6.300E+00  3.01952E-03  1.47163E-15  5.25530E+01  1.87904E-03  1.0E-07
  6.400E+00  3.11604E-03  1.46641E-15  5.23663E+01  1.92068E-03  1.0E-07
  6.500E+00  3.21407E-03  1.46112E-15  5.21776E+01  1.96290E-03  1.0E-07
  6.600E+00  3.31362E-03  1.45578E-15  5.19869E+01  2.00571E-03  1.0E-07
  6.700E+00  3.41468E-03  1.45039E-15  5.17943E+01  2.04913E-03  1.0E-07
  6.800E+00  3.51725E-03  1.44494E-15  5.15999E+01  2.09315E-03  1.0E-07
  6.900E+00  3.62133E-03  1.43945E-15  5.14035E+01  2.13781E-03  1.0E-07
  7.000E+00  3.72692E-03  1.43390E-15  5.12054E+01  2.18310E-03  1.0E-07
  7.100E+00  3.83403E-03  1.42830E-15  5.10055E+01  2.22903E-03  1.0E-07
  7.200E+00  3.94265E-03  1.42265E-15  5.08038E+01  2.27562E-03  1.0E-07
  7.300E+00  4.05278E-03  1.41696E-15  5.06005E+01  2.32289E-03  1.0E-07
  7.400E+00  4.16442E-03  1.41122E-15  5.03955E+01  2.37083E-03  1.0E-07
  7.500E+00  4.27757E-03  1.40543E-15  5.01889E+01  2.41947E-03  1.0E-07
  7.600E+00  4.39223E-03  1.39960E-15  4.99807E+01  2.46880E-03  1.0E-07
  7.700E+00  4.50840E-03  1.39373E-15  4.97710E+01  2.51886E-03  1.0E-07
  7.800E+00  4.62608E-03  1.38782E-15  4.95598E+01  2.56964E-03  1.0E-07
  7.900E+00  4.74527E-03  1.38186E-15  4.93471E+01  2.62116E-03  1.0E-07
  8.000E+00  4.86597E-03  1.37587E-15  4.91330E+01  2.67343E-03  1.0E-07
  8.100E+00  4.98817E-03  1.36983E-15  4.89176E+01  2.72646E-03  1.0E-07
  8.200E+00  5.11188E-03  1.36376E-15  4.87007E+01  2.78027E-03  1.0E-07
  8.300E+00  5.23711E-03  1.35765E-15  4.84826E+01  2.83487E-03  1.0E-07
  8.400E+00  5.36383E-03  1.35151E-15  4.82632E+01  2.89026E-03  1.0E-07
  8.500E+00  5.49207E-03  1.34533E-15  4.80426E+01  2.94646E-03  1.0E-07
  8.600E+00  5.62181E-03  1.33912E-15  4.78208E+01  3.00349E-03  1.0E-07
  8.700E+00  5.75306E-03  1.33288E-15  4.75978E+01  3.06136E-03  1.0E-07
  8.800E+00  5.88581E-03  1.32660E-15  4.73738E+01  3.12007E-03  1.0E-07
  8.900E+00  6.02007E-03  1.32030E-15  4.71486E+01  3.17964E-03  1.0E-07
  9.000E+00  6.15583E-03  1.31396E-15  4.69225E+01  3.24009E-03  1.0E-07
  9.100E+00  6.29310E-03  1.30760E-15  4.66953E+01  3.30142E-03  1.0E-07
  9.200E+00  6.43187E-03  1.30121E-15  4.64672E+01  3.36365E-03  1.0E-07
  9.300E+00  6.57214E-03  1.29480E-15  4.62381E+01  3.42680E-03  1.0E-07
  9.400E+00  6.71392E-03  1.28836E-15  4.60082E+01  3.49087E-03  1.0E-07
  9.500E+00  6.85720E-03  1.28190E-15  4.57774E+01  3.55588E-03  1.0E-07
  9.600E+00  7.00198E-03  1.27541E-15  4.55458E+01  3.62184E-03  1.0E-07
  9.700E+00  7.14827E-03  1.26891E-15  4.53135E+01  3.68876E-03  1.0E-07
  9.800E+00  7.29605E-03  1.26238E-15  4.50804E+01  3.75666E-03  1.0E-07
  9.900E+00  7.44534E-03  1.25583E-15  4.48466E+01  3.82556E-03  1.0E-07
  1.000E+01  7.59612E-03  1.24927E-15  4.46121E+01  3.89545E-03  1.0E-07
  1.025E+01  7.97965E-03  1.23278E-15  4.40233E+01  4.07468E-03  1.0E-07
  1.050E+01  8.37255E-03  1.21620E-15  4.34311E+01  4.26049E-03  1.0E-07
  1.075E+01  8.77480E-03  1.19953E-15  4.28361E+01  4.45310E-03  1.0E-07
  1.100E+01  9.18641E-03  1.18281E-15  4.22388E+01  4.65271E-03  1.0E-07
  1.125E+01  9.60736E-03  1.16603E-15  4.16397E+01  4.85957E-03  1.0E-07
  1.150E+01  1.00376E-02  1.14922E-15  4.10394E+01  5.07389E-03  1.0E-07
  1.175E+01  1.04773E-02  1.13239E-15  4.04382E+01  5.29589E-03  1.0E-07
  1.200E+01  1.09262E-02  1.11554E-15  3.98367E+01  5.52582E-03  1.0E-07
  1.225E+01  1.13844E-02  1.09870E-15  3.92354E+01  5.76391E-03  1.0E-07
  1.250E+01  1.18520E-02  1.08188E-15  3.86347E+01  6.01038E-03  1.0E-07
  1.275E+01  1.23288E-02  1.06509E-15  3.80350E+01  6.26548E-03  1.0E-07
  1.300E+01  1.28150E-02  1.04834E-15  3.74368E+01  6.52945E-03  1.0E-07
  1.325E+01  1.33104E-02  1.03164E-15  3.68404E+01  6.80252E-03  1.0E-07
  1.350E+01  1.38150E-02  1.01500E-15  3.62462E+01  7.08496E-03  1.0E-07
  1.375E+01  1.43290E-02  9.98431E-16  3.56546E+01  7.37699E-03  1.0E-07
  1.400E+01  1.48521E-02  9.81948E-16  3.50660E+01  7.67886E-03  1.0E-07
  1.425E+01  1.53845E-02  9.65556E-16  3.44806E+01  7.99083E-03  1.0E-07
  1.450E+01  1.59262E-02  9.49264E-16  3.38988E+01  8.31315E-03  1.0E-07
  1.475E+01  1.64770E-02  9.33082E-16  3.33210E+01  8.64605E-03  1.0E-07
  1.500E+01  1.70371E-02  9.17017E-16  3.27473E+01  8.98981E-03  1.0E-07
