 #
 # Subroutine ELSEPA. Elastic scattering of electrons and positrons
 #                    by neutral atoms and positive ions
 #
 # Projectile: electron
 # Kinetic energy = 8.00000E+03 eV = 2.93995E+02 a.u.
 #
 # Element: Hg,  Z =  80,  atomic weight = 2.00590E+02 g/mol
 #
 # Nuclear model: Fermi distribution
 #                Average radius = 6.26355E-13 cm
 #                Skin thickness = 5.46000E-14 cm
 #
 # Number of electrons = 80
 #
 # Electron density: Read from file z_080.den   
 #                   Number of data points =  763
 #                   Volume integral = 8.00000E+01
 #
 # Furness-McCarthy exchange potential
 #
 # Total elastic cross section = 9.41171E-17 cm**2 = 3.36098E+00 a0**2
 # 1st transport cross section = 6.32062E-18 cm**2 = 2.25713E-01 a0**2
 # 2nd transport cross section = 9.25830E-18 cm**2 = 3.30620E-01 a0**2
 #
 #
 # Differential cross section:                       MU=(1-COS(THETA))/2
 #
 #  THETA        MU          DCS          DCS        Sherman      error
 #  (deg)                 (cm**2/sr)   (a0**2/sr)    function
 #----------------------------------------------------------------------
  0.000E+00  0.00000E+00  6.31047E-15  2.25351E+02  0.00000E+00  1.0E-07
  1.000E-04  7.61557E-13  6.31047E-15  2.25351E+02 -1.23773E-09  1.0E-07
  1.250E-04  1.18994E-12  6.31047E-15  2.25351E+02 -1.54716E-09  1.0E-07
  1.500E-04  1.71346E-12  6.31047E-15  2.25351E+02 -1.85659E-09  1.0E-07
  1.750E-04  2.33225E-12  6.31047E-15  2.25351E+02 -2.16602E-09  1.0E-07
  2.000E-04  3.04617E-12  6.31047E-15  2.25351E+02 -2.47545E-09  1.0E-07
  2.250E-04  3.85530E-12  6.31047E-15  2.25351E+02 -2.78489E-09  1.0E-07
  2.500E-04  4.75964E-12  6.31047E-15  2.25351E+02 -3.09432E-09  1.0E-07
  2.750E-04  5.75917E-12  6.31047E-15  2.25351E+02 -3.40375E-09  1.0E-07
  3.000E-04  6.85391E-12  6.31047E-15  2.25351E+02 -3.71318E-09  1.0E-07
  3.250E-04  8.04379E-12  6.31047E-15  2.25351E+02 -4.02261E-09  1.0E-07
  3.500E-04  9.32893E-12  6.31047E-15  2.25351E+02 -4.33205E-09  1.0E-07
  3.750E-04  1.07092E-11  6.31047E-15  2.25351E+02 -4.64148E-09  1.0E-07
  4.000E-04  1.21847E-11  6.31047E-15  2.25351E+02 -4.95091E-09  1.0E-07
  4.250E-04  1.37554E-11  6.31047E-15  2.25351E+02 -5.26034E-09  1.0E-07
  4.500E-04  1.54213E-11  6.31047E-15  2.25351E+02 -5.56977E-09  1.0E-07
  4.750E-04  1.71823E-11  6.31047E-15  2.25351E+02 -5.87920E-09  1.0E-07
  5.000E-04  1.90386E-11  6.31047E-15  2.25351E+02 -6.18864E-09  1.0E-07
  5.250E-04  2.09900E-11  6.31047E-15  2.25351E+02 -6.49807E-09  1.0E-07
  5.500E-04  2.30367E-11  6.31047E-15  2.25351E+02 -6.80750E-09  1.0E-07
  5.750E-04  2.51785E-11  6.31047E-15  2.25351E+02 -7.11693E-09  1.0E-07
  6.000E-04  2.74156E-11  6.31047E-15  2.25351E+02 -7.42636E-09  1.0E-07
  6.250E-04  2.97478E-11  6.31047E-15  2.25351E+02 -7.73580E-09  1.0E-07
  6.500E-04  3.21752E-11  6.31047E-15  2.25351E+02 -8.04523E-09  1.0E-07
  6.750E-04  3.46979E-11  6.31047E-15  2.25351E+02 -8.35466E-09  1.0E-07
  7.000E-04  3.73157E-11  6.31047E-15  2.25351E+02 -8.66409E-09  1.0E-07
  7.250E-04  4.00286E-11  6.31047E-15  2.25351E+02 -8.97352E-09  1.0E-07
  7.500E-04  4.28368E-11  6.31047E-15  2.25351E+02 -9.28295E-09  1.0E-07
  7.750E-04  4.57402E-11  6.31047E-15  2.25351E+02 -9.59239E-09  1.0E-07
  8.000E-04  4.87388E-11  6.31047E-15  2.25351E+02 -9.90182E-09  1.0E-07
  8.250E-04  5.18325E-11  6.31047E-15  2.25351E+02 -1.02112E-08  1.0E-07
  8.500E-04  5.50215E-11  6.31047E-15  2.25351E+02 -1.05207E-08  1.0E-07
  8.750E-04  5.83057E-11  6.31047E-15  2.25351E+02 -1.08301E-08  1.0E-07
  9.000E-04  6.16850E-11  6.31047E-15  2.25351E+02 -1.11395E-08  1.0E-07
  9.250E-04  6.51595E-11  6.31047E-15  2.25351E+02 -1.14490E-08  1.0E-07
  9.500E-04  6.87293E-11  6.31047E-15  2.25351E+02 -1.17584E-08  1.0E-07
  9.750E-04  7.23943E-11  6.31047E-15  2.25351E+02 -1.20678E-08  1.0E-07
  1.000E-03  7.61544E-11  6.31047E-15  2.25351E+02 -1.23773E-08  1.0E-07
  1.250E-03  1.18991E-10  6.31047E-15  2.25351E+02 -1.54716E-08  1.0E-07
  1.500E-03  1.71347E-10  6.31047E-15  2.25351E+02 -1.85659E-08  1.0E-07
  1.750E-03  2.33223E-10  6.31047E-15  2.25351E+02 -2.16602E-08  1.0E-07
  2.000E-03  3.04617E-10  6.31047E-15  2.25351E+02 -2.47546E-08  1.0E-07
  2.250E-03  3.85531E-10  6.31047E-15  2.25351E+02 -2.78489E-08  1.0E-07
  2.500E-03  4.75965E-10  6.31046E-15  2.25351E+02 -3.09432E-08  1.0E-07
  2.750E-03  5.75917E-10  6.31046E-15  2.25351E+02 -3.40375E-08  1.0E-07
  3.000E-03  6.85389E-10  6.31046E-15  2.25351E+02 -3.71318E-08  1.0E-07
  3.250E-03  8.04380E-10  6.31046E-15  2.25351E+02 -4.02262E-08  1.0E-07
  3.500E-03  9.32891E-10  6.31046E-15  2.25351E+02 -4.33205E-08  1.0E-07
  3.750E-03  1.07092E-09  6.31046E-15  2.25350E+02 -4.64148E-08  1.0E-07
  4.000E-03  1.21847E-09  6.31045E-15  2.25350E+02 -4.95092E-08  1.0E-07
  4.250E-03  1.37554E-09  6.31045E-15  2.25350E+02 -5.26035E-08  1.0E-07
  4.500E-03  1.54213E-09  6.31045E-15  2.25350E+02 -5.56978E-08  1.0E-07
  4.750E-03  1.71823E-09  6.31045E-15  2.25350E+02 -5.87921E-08  1.0E-07
  5.000E-03  1.90386E-09  6.31044E-15  2.25350E+02 -6.18865E-08  1.0E-07
  5.250E-03  2.09900E-09  6.31044E-15  2.25350E+02 -6.49808E-08  1.0E-07
  5.500E-03  2.30367E-09  6.31044E-15  2.25350E+02 -6.80752E-08  1.0E-07
  5.750E-03  2.51785E-09  6.31044E-15  2.25350E+02 -7.11695E-08  1.0E-07
  6.000E-03  2.74156E-09  6.31043E-15  2.25350E+02 -7.42638E-08  1.0E-07
  6.250E-03  2.97478E-09  6.31043E-15  2.25350E+02 -7.73582E-08  1.0E-07
  6.500E-03  3.21752E-09  6.31043E-15  2.25349E+02 -8.04525E-08  1.0E-07
  6.750E-03  3.46978E-09  6.31042E-15  2.25349E+02 -8.35469E-08  1.0E-07
  7.000E-03  3.73156E-09  6.31042E-15  2.25349E+02 -8.66412E-08  1.0E-07
  7.250E-03  4.00286E-09  6.31042E-15  2.25349E+02 -8.97356E-08  1.0E-07
  7.500E-03  4.28368E-09  6.31041E-15  2.25349E+02 -9.28300E-08  1.0E-07
  7.750E-03  4.57402E-09  6.31041E-15  2.25349E+02 -9.59243E-08  1.0E-07
  8.000E-03  4.87388E-09  6.31040E-15  2.25349E+02 -9.90187E-08  1.0E-07
  8.250E-03  5.18326E-09  6.31040E-15  2.25348E+02 -1.02113E-07  1.0E-07
  8.500E-03  5.50215E-09  6.31040E-15  2.25348E+02 -1.05207E-07  1.0E-07
  8.750E-03  5.83057E-09  6.31039E-15  2.25348E+02 -1.08302E-07  1.0E-07
  9.000E-03  6.16850E-09  6.31039E-15  2.25348E+02 -1.11396E-07  1.0E-07
  9.250E-03  6.51596E-09  6.31038E-15  2.25348E+02 -1.14491E-07  1.0E-07
  9.500E-03  6.87293E-09  6.31038E-15  2.25348E+02 -1.17585E-07  1.0E-07
  9.750E-03  7.23942E-09  6.31037E-15  2.25347E+02 -1.20679E-07  1.0E-07
  1.000E-02  7.61544E-09  6.31037E-15  2.25347E+02 -1.23774E-07  1.0E-07
  1.250E-02  1.18991E-08  6.31031E-15  2.25345E+02 -1.54718E-07  1.0E-07
  1.500E-02  1.71347E-08  6.31024E-15  2.25343E+02 -1.85662E-07  1.0E-07
  1.750E-02  2.33223E-08  6.31015E-15  2.25340E+02 -2.16608E-07  1.0E-07
  2.000E-02  3.04617E-08  6.31005E-15  2.25336E+02 -2.47554E-07  1.0E-07
  2.250E-02  3.85531E-08  6.30994E-15  2.25332E+02 -2.78500E-07  1.0E-07
  2.500E-02  4.75965E-08  6.30982E-15  2.25328E+02 -3.09448E-07  1.0E-07
  2.750E-02  5.75917E-08  6.30968E-15  2.25323E+02 -3.40396E-07  1.0E-07
  3.000E-02  6.85389E-08  6.30953E-15  2.25317E+02 -3.71345E-07  1.0E-07
  3.250E-02  8.04380E-08  6.30937E-15  2.25312E+02 -4.02296E-07  1.0E-07
  3.500E-02  9.32891E-08  6.30919E-15  2.25305E+02 -4.33248E-07  1.0E-07
  3.750E-02  1.07092E-07  6.30900E-15  2.25298E+02 -4.64201E-07  1.0E-07
  4.000E-02  1.21847E-07  6.30880E-15  2.25291E+02 -4.95155E-07  1.0E-07
  4.250E-02  1.37554E-07  6.30858E-15  2.25284E+02 -5.26111E-07  1.0E-07
  4.500E-02  1.54213E-07  6.30835E-15  2.25275E+02 -5.57069E-07  1.0E-07
  4.750E-02  1.71823E-07  6.30811E-15  2.25267E+02 -5.88028E-07  1.0E-07
  5.000E-02  1.90386E-07  6.30786E-15  2.25258E+02 -6.18990E-07  1.0E-07
  5.250E-02  2.09900E-07  6.30759E-15  2.25248E+02 -6.49953E-07  1.0E-07
  5.500E-02  2.30367E-07  6.30731E-15  2.25238E+02 -6.80918E-07  1.0E-07
  5.750E-02  2.51785E-07  6.30701E-15  2.25228E+02 -7.11885E-07  1.0E-07
  6.000E-02  2.74156E-07  6.30671E-15  2.25217E+02 -7.42854E-07  1.0E-07
  6.250E-02  2.97478E-07  6.30639E-15  2.25205E+02 -7.73826E-07  1.0E-07
  6.500E-02  3.21752E-07  6.30605E-15  2.25193E+02 -8.04800E-07  1.0E-07
  6.750E-02  3.46978E-07  6.30571E-15  2.25181E+02 -8.35776E-07  1.0E-07
  7.000E-02  3.73156E-07  6.30535E-15  2.25168E+02 -8.66755E-07  1.0E-07
  7.250E-02  4.00286E-07  6.30498E-15  2.25155E+02 -8.97736E-07  1.0E-07
  7.500E-02  4.28368E-07  6.30459E-15  2.25141E+02 -9.28721E-07  1.0E-07
  7.750E-02  4.57402E-07  6.30419E-15  2.25127E+02 -9.59708E-07  1.0E-07
  8.000E-02  4.87388E-07  6.30378E-15  2.25112E+02 -9.90698E-07  1.0E-07
  8.250E-02  5.18325E-07  6.30336E-15  2.25097E+02 -1.02169E-06  1.0E-07
  8.500E-02  5.50215E-07  6.30292E-15  2.25081E+02 -1.05269E-06  1.0E-07
  8.750E-02  5.83057E-07  6.30247E-15  2.25065E+02 -1.08369E-06  1.0E-07
  9.000E-02  6.16850E-07  6.30201E-15  2.25049E+02 -1.11469E-06  1.0E-07
  9.250E-02  6.51596E-07  6.30153E-15  2.25032E+02 -1.14570E-06  1.0E-07
  9.500E-02  6.87293E-07  6.30104E-15  2.25014E+02 -1.17671E-06  1.0E-07
  9.750E-02  7.23942E-07  6.30054E-15  2.24996E+02 -1.20772E-06  1.0E-07
  1.000E-01  7.61543E-07  6.30002E-15  2.24978E+02 -1.23874E-06  1.0E-07
  1.250E-01  1.18991E-06  6.29416E-15  2.24769E+02 -1.54913E-06  1.0E-07
  1.500E-01  1.71347E-06  6.28700E-15  2.24513E+02 -1.85999E-06  1.0E-07
  1.750E-01  2.33223E-06  6.27856E-15  2.24212E+02 -2.17142E-06  1.0E-07
  2.000E-01  3.04617E-06  6.26885E-15  2.23865E+02 -2.48352E-06  1.0E-07
  2.250E-01  3.85531E-06  6.25787E-15  2.23472E+02 -2.79636E-06  1.0E-07
  2.500E-01  4.75964E-06  6.24563E-15  2.23035E+02 -3.11006E-06  1.0E-07
  2.750E-01  5.75916E-06  6.23215E-15  2.22554E+02 -3.42470E-06  1.0E-07
  3.000E-01  6.85388E-06  6.21743E-15  2.22029E+02 -3.74037E-06  1.0E-07
  3.250E-01  8.04378E-06  6.20150E-15  2.21460E+02 -4.05717E-06  1.0E-07
  3.500E-01  9.32888E-06  6.18437E-15  2.20848E+02 -4.37520E-06  1.0E-07
  3.750E-01  1.07092E-05  6.16606E-15  2.20194E+02 -4.69454E-06  1.0E-07
  4.000E-01  1.21846E-05  6.14657E-15  2.19498E+02 -5.01528E-06  1.0E-07
  4.250E-01  1.37553E-05  6.12594E-15  2.18761E+02 -5.33753E-06  1.0E-07
  4.500E-01  1.54212E-05  6.10417E-15  2.17984E+02 -5.66136E-06  1.0E-07
  4.750E-01  1.71822E-05  6.08130E-15  2.17167E+02 -5.98688E-06  1.0E-07
  5.000E-01  1.90385E-05  6.05734E-15  2.16312E+02 -6.31417E-06  1.0E-07
  5.250E-01  2.09899E-05  6.03231E-15  2.15418E+02 -6.64333E-06  1.0E-07
  5.500E-01  2.30365E-05  6.00624E-15  2.14487E+02 -6.97444E-06  1.0E-07
  5.750E-01  2.51783E-05  5.97914E-15  2.13519E+02 -7.30760E-06  1.0E-07
  6.000E-01  2.74153E-05  5.95105E-15  2.12516E+02 -7.64289E-06  1.0E-07
  6.250E-01  2.97475E-05  5.92199E-15  2.11478E+02 -7.98040E-06  1.0E-07
  6.500E-01  3.21749E-05  5.89198E-15  2.10407E+02 -8.32023E-06  1.0E-07
  6.750E-01  3.46974E-05  5.86106E-15  2.09302E+02 -8.66245E-06  1.0E-07
  7.000E-01  3.73152E-05  5.82923E-15  2.08166E+02 -9.00717E-06  1.0E-07
  7.250E-01  4.00281E-05  5.79654E-15  2.06998E+02 -9.35445E-06  1.0E-07
  7.500E-01  4.28362E-05  5.76301E-15  2.05801E+02 -9.70440E-06  1.0E-07
  7.750E-01  4.57395E-05  5.72867E-15  2.04575E+02 -1.00571E-05  1.0E-07
  8.000E-01  4.87380E-05  5.69355E-15  2.03320E+02 -1.04126E-05  1.0E-07
  8.250E-01  5.18317E-05  5.65767E-15  2.02039E+02 -1.07711E-05  1.0E-07
  8.500E-01  5.50205E-05  5.62106E-15  2.00732E+02 -1.11325E-05  1.0E-07
  8.750E-01  5.83045E-05  5.58375E-15  1.99399E+02 -1.14970E-05  1.0E-07
  9.000E-01  6.16838E-05  5.54577E-15  1.98043E+02 -1.18647E-05  1.0E-07
  9.250E-01  6.51582E-05  5.50715E-15  1.96664E+02 -1.22357E-05  1.0E-07
  9.500E-01  6.87277E-05  5.46792E-15  1.95263E+02 -1.26099E-05  1.0E-07
  9.750E-01  7.23925E-05  5.42811E-15  1.93841E+02 -1.29876E-05  1.0E-07
  1.000E+00  7.61524E-05  5.38774E-15  1.92400E+02 -1.33688E-05  1.0E-07
  1.100E+00  9.21439E-05  5.22130E-15  1.86456E+02 -1.49299E-05  1.0E-07
  1.200E+00  1.09658E-04  5.04825E-15  1.80276E+02 -1.65529E-05  1.0E-07
  1.300E+00  1.28695E-04  4.87035E-15  1.73923E+02 -1.82426E-05  1.0E-07
  1.400E+00  1.49255E-04  4.68923E-15  1.67456E+02 -2.00034E-05  1.0E-07
  1.500E+00  1.71338E-04  4.50644E-15  1.60928E+02 -2.18393E-05  1.0E-07
  1.600E+00  1.94942E-04  4.32336E-15  1.54390E+02 -2.37542E-05  1.0E-07
  1.700E+00  2.20070E-04  4.14123E-15  1.47886E+02 -2.57517E-05  1.0E-07
  1.800E+00  2.46720E-04  3.96116E-15  1.41455E+02 -2.78350E-05  1.0E-07
  1.900E+00  2.74892E-04  3.78407E-15  1.35132E+02 -3.00069E-05  1.0E-07
  2.000E+00  3.04586E-04  3.61077E-15  1.28943E+02 -3.22699E-05  1.0E-07
  2.100E+00  3.35803E-04  3.44191E-15  1.22913E+02 -3.46260E-05  1.0E-07
  2.200E+00  3.68542E-04  3.27802E-15  1.17060E+02 -3.70771E-05  1.0E-07
  2.300E+00  4.02802E-04  3.11949E-15  1.11399E+02 -3.96245E-05  1.0E-07
  2.400E+00  4.38585E-04  2.96663E-15  1.05940E+02 -4.22690E-05  1.0E-07
  2.500E+00  4.75889E-04  2.81964E-15  1.00691E+02 -4.50110E-05  1.0E-07
  2.600E+00  5.14715E-04  2.67863E-15  9.56556E+01 -4.78507E-05  1.0E-07
  2.700E+00  5.55063E-04  2.54366E-15  9.08356E+01 -5.07876E-05  1.0E-07
  2.800E+00  5.96931E-04  2.41470E-15  8.62306E+01 -5.38206E-05  1.0E-07
  2.900E+00  6.40321E-04  2.29171E-15  8.18383E+01 -5.69485E-05  1.0E-07
  3.000E+00  6.85233E-04  2.17456E-15  7.76550E+01 -6.01693E-05  1.0E-07
  3.100E+00  7.31665E-04  2.06314E-15  7.36759E+01 -6.34805E-05  1.0E-07
  3.200E+00  7.79618E-04  1.95727E-15  6.98952E+01 -6.68791E-05  1.0E-07
  3.300E+00  8.29092E-04  1.85677E-15  6.63065E+01 -7.03617E-05  1.0E-07
  3.400E+00  8.80086E-04  1.76145E-15  6.29027E+01 -7.39239E-05  1.0E-07
  3.500E+00  9.32601E-04  1.67111E-15  5.96766E+01 -7.75612E-05  1.0E-07
  3.600E+00  9.86636E-04  1.58554E-15  5.66207E+01 -8.12680E-05  1.0E-07
  3.700E+00  1.04219E-03  1.50453E-15  5.37276E+01 -8.50385E-05  1.0E-07
  3.800E+00  1.09927E-03  1.42785E-15  5.09895E+01 -8.88659E-05  1.0E-07
  3.900E+00  1.15786E-03  1.35532E-15  4.83992E+01 -9.27427E-05  1.0E-07
  4.000E+00  1.21797E-03  1.28671E-15  4.59492E+01 -9.66610E-05  1.0E-07
  4.100E+00  1.27961E-03  1.22183E-15  4.36325E+01 -1.00612E-04  1.0E-07
  4.200E+00  1.34276E-03  1.16050E-15  4.14421E+01 -1.04585E-04  1.0E-07
  4.300E+00  1.40743E-03  1.10251E-15  3.93713E+01 -1.08571E-04  1.0E-07
  4.400E+00  1.47362E-03  1.04769E-15  3.74138E+01 -1.12559E-04  1.0E-07
  4.500E+00  1.54133E-03  9.95878E-16  3.55635E+01 -1.16535E-04  1.0E-07
  4.600E+00  1.61056E-03  9.46898E-16  3.38143E+01 -1.20488E-04  1.0E-07
  4.700E+00  1.68131E-03  9.00596E-16  3.21609E+01 -1.24402E-04  1.0E-07
  4.800E+00  1.75357E-03  8.56825E-16  3.05978E+01 -1.28265E-04  1.0E-07
  4.900E+00  1.82735E-03  8.15442E-16  2.91200E+01 -1.32060E-04  1.0E-07
  5.000E+00  1.90265E-03  7.76314E-16  2.77227E+01 -1.35770E-04  1.0E-07
  5.100E+00  1.97947E-03  7.39314E-16  2.64014E+01 -1.39379E-04  1.0E-07
  5.200E+00  2.05780E-03  7.04322E-16  2.51518E+01 -1.42867E-04  1.0E-07
  5.300E+00  2.13765E-03  6.71223E-16  2.39698E+01 -1.46217E-04  1.0E-07
  5.400E+00  2.21902E-03  6.39912E-16  2.28517E+01 -1.49407E-04  1.0E-07
  5.500E+00  2.30190E-03  6.10286E-16  2.17937E+01 -1.52417E-04  1.0E-07
  5.600E+00  2.38630E-03  5.82250E-16  2.07925E+01 -1.55226E-04  1.0E-07
  5.700E+00  2.47222E-03  5.55714E-16  1.98449E+01 -1.57810E-04  1.0E-07
  5.800E+00  2.55965E-03  5.30593E-16  1.89478E+01 -1.60146E-04  1.0E-07
  5.900E+00  2.64859E-03  5.06807E-16  1.80984E+01 -1.62210E-04  1.0E-07
  6.000E+00  2.73905E-03  4.84280E-16  1.72940E+01 -1.63978E-04  1.0E-07
  6.100E+00  2.83103E-03  4.62941E-16  1.65319E+01 -1.65423E-04  1.0E-07
  6.200E+00  2.92452E-03  4.42723E-16  1.58099E+01 -1.66520E-04  1.0E-07
  6.300E+00  3.01952E-03  4.23563E-16  1.51257E+01 -1.67242E-04  1.0E-07
  6.400E+00  3.11604E-03  4.05400E-16  1.44771E+01 -1.67562E-04  1.0E-07
  6.500E+00  3.21407E-03  3.88180E-16  1.38622E+01 -1.67453E-04  1.0E-07
  6.600E+00  3.31362E-03  3.71848E-16  1.32790E+01 -1.66886E-04  1.0E-07
  6.700E+00  3.41468E-03  3.56356E-16  1.27257E+01 -1.65833E-04  1.0E-07
  6.800E+00  3.51725E-03  3.41657E-16  1.22008E+01 -1.64266E-04  1.0E-07
  6.900E+00  3.62133E-03  3.27705E-16  1.17025E+01 -1.62157E-04  1.0E-07
  7.000E+00  3.72692E-03  3.14459E-16  1.12295E+01 -1.59476E-04  1.0E-07
  7.100E+00  3.83403E-03  3.01881E-16  1.07804E+01 -1.56195E-04  1.0E-07
  7.200E+00  3.94265E-03  2.89932E-16  1.03537E+01 -1.52287E-04  1.0E-07
  7.300E+00  4.05278E-03  2.78579E-16  9.94822E+00 -1.47722E-04  1.0E-07
  7.400E+00  4.16442E-03  2.67787E-16  9.56285E+00 -1.42474E-04  1.0E-07
  7.500E+00  4.27757E-03  2.57527E-16  9.19644E+00 -1.36513E-04  1.0E-07
  7.600E+00  4.39223E-03  2.47768E-16  8.84796E+00 -1.29814E-04  1.0E-07
  7.700E+00  4.50840E-03  2.38484E-16  8.51641E+00 -1.22350E-04  1.0E-07
  7.800E+00  4.62608E-03  2.29648E-16  8.20088E+00 -1.14094E-04  1.0E-07
  7.900E+00  4.74527E-03  2.21236E-16  7.90047E+00 -1.05023E-04  1.0E-07
  8.000E+00  4.86597E-03  2.13224E-16  7.61437E+00 -9.51106E-05  1.0E-07
  8.100E+00  4.98817E-03  2.05591E-16  7.34180E+00 -8.43339E-05  1.0E-07
  8.200E+00  5.11188E-03  1.98317E-16  7.08203E+00 -7.26700E-05  1.0E-07
  8.300E+00  5.23711E-03  1.91382E-16  6.83436E+00 -6.00970E-05  1.0E-07
  8.400E+00  5.36383E-03  1.84767E-16  6.59814E+00 -4.65941E-05  1.0E-07
  8.500E+00  5.49207E-03  1.78455E-16  6.37275E+00 -3.21413E-05  1.0E-07
  8.600E+00  5.62181E-03  1.72431E-16  6.15762E+00 -1.67196E-05  1.0E-07
  8.700E+00  5.75306E-03  1.66678E-16  5.95219E+00  0.00000E+00  1.0E-07
  8.800E+00  5.88581E-03  1.61183E-16  5.75595E+00  1.71002E-05  1.0E-07
  8.900E+00  6.02007E-03  1.55932E-16  5.56842E+00  3.55309E-05  1.0E-07
  9.000E+00  6.15583E-03  1.50911E-16  5.38912E+00  5.49951E-05  1.0E-07
  9.100E+00  6.29310E-03  1.46109E-16  5.21764E+00  7.55064E-05  1.0E-07
  9.200E+00  6.43187E-03  1.41514E-16  5.05355E+00  9.70771E-05  1.0E-07
  9.300E+00  6.57214E-03  1.37115E-16  4.89647E+00  1.19718E-04  1.0E-07
  9.400E+00  6.71392E-03  1.32903E-16  4.74604E+00  1.43441E-04  1.0E-07
  9.500E+00  6.85720E-03  1.28867E-16  4.60191E+00  1.68253E-04  1.0E-07
  9.600E+00  7.00198E-03  1.24998E-16  4.46377E+00  1.94163E-04  1.0E-07
  9.700E+00  7.14827E-03  1.21289E-16  4.33129E+00  2.21178E-04  1.0E-07
  9.800E+00  7.29605E-03  1.17730E-16  4.20420E+00  2.49305E-04  1.0E-07
  9.900E+00  7.44534E-03  1.14314E-16  4.08223E+00  2.78547E-04  1.0E-07
  1.000E+01  7.59612E-03  1.11034E-16  3.96510E+00  3.08910E-04  1.0E-07
  1.025E+01  7.97965E-03  1.03385E-16  3.69196E+00  3.89739E-04  1.0E-07
  1.050E+01  8.37255E-03  9.64483E-17  3.44423E+00  4.77617E-04  1.0E-07
  1.075E+01  8.77480E-03  9.01392E-17  3.21893E+00  5.72542E-04  1.0E-07
  1.100E+01  9.18641E-03  8.43857E-17  3.01347E+00  6.74485E-04  1.0E-07
  1.125E+01  9.60736E-03  7.91252E-17  2.82561E+00  7.83392E-04  1.0E-07
  1.150E+01  1.00376E-02  7.43030E-17  2.65341E+00  8.99188E-04  1.0E-07
  1.175E+01  1.04773E-02  6.98717E-17  2.49516E+00  1.02178E-03  1.0E-07
  1.200E+01  1.09262E-02  6.57899E-17  2.34940E+00  1.15105E-03  1.0E-07
  1.225E+01  1.13844E-02  6.20219E-17  2.21484E+00  1.28688E-03  1.0E-07
  1.250E+01  1.18520E-02  5.85360E-17  2.09036E+00  1.42910E-03  1.0E-07
  1.275E+01  1.23288E-02  5.53048E-17  1.97497E+00  1.57757E-03  1.0E-07
  1.300E+01  1.28150E-02  5.23041E-17  1.86781E+00  1.73208E-03  1.0E-07
  1.325E+01  1.33104E-02  4.95128E-17  1.76813E+00  1.89244E-03  1.0E-07
  1.350E+01  1.38150E-02  4.69121E-17  1.67526E+00  2.05843E-03  1.0E-07
  1.375E+01  1.43290E-02  4.44856E-17  1.58861E+00  2.22978E-03  1.0E-07
  1.400E+01  1.48521E-02  4.22185E-17  1.50765E+00  2.40623E-03  1.0E-07
  1.425E+01  1.53845E-02  4.00978E-17  1.43192E+00  2.58748E-03  1.0E-07
  1.450E+01  1.59262E-02  3.81120E-17  1.36100E+00  2.77319E-03  1.0E-07
  1.475E+01  1.64770E-02  3.62504E-17  1.29453E+00  2.96301E-03  1.0E-07
  1.500E+01  1.70371E-02  3.45039E-17  1.23216E+00  3.15654E-03  1.0E-07
  1.525E+01  1.76063E-02  3.28639E-17  1.17359E+00  3.35335E-03  1.0E-07
  1.550E+01  1.81848E-02  3.13227E-17  1.11855E+00  3.55301E-03  1.0E-07
