 #
 # Subroutine ELSEPA. Elastic scattering of electrons and positrons
 #                    by neutral atoms and positive ions
 #
 # Projectile: electron
 # Kinetic energy = 2.50000E+03 eV = 9.18733E+01 a.u.
 #
 # Element: Hg,  Z =  80,  atomic weight = 2.00590E+02 g/mol
 #
 # Nuclear model: Fermi distribution
 #                Average radius = 6.26355E-13 cm
 #                Skin thickness = 5.46000E-14 cm
 #
 # Number of electrons = 80
 #
 # Electron density: Read from file z_080.den   
 #                   Number of data points =  763
 #                   Volume integral = 8.00000E+01
 #
 # Furness-McCarthy exchange potential
 #
 # Total elastic cross section = 1.70136E-16 cm**2 = 6.07567E+00 a0**2
 # 1st transport cross section = 2.83084E-17 cm**2 = 1.01091E+00 a0**2
 # 2nd transport cross section = 2.79133E-17 cm**2 = 9.96803E-01 a0**2
 #
 #
 # Differential cross section:                       MU=(1-COS(THETA))/2
 #
 #  THETA        MU          DCS          DCS        Sherman      error
 #  (deg)                 (cm**2/sr)   (a0**2/sr)    function
 #----------------------------------------------------------------------
  0.000E+00  0.00000E+00  4.34322E-15  1.55099E+02  0.00000E+00  1.0E-07
  1.000E-04  7.61557E-13  4.34322E-15  1.55099E+02  4.07157E-09  1.0E-07
  1.250E-04  1.18994E-12  4.34322E-15  1.55099E+02  5.08947E-09  1.0E-07
  1.500E-04  1.71346E-12  4.34322E-15  1.55099E+02  6.10736E-09  1.0E-07
  1.750E-04  2.33225E-12  4.34322E-15  1.55099E+02  7.12526E-09  1.0E-07
  2.000E-04  3.04617E-12  4.34322E-15  1.55099E+02  8.14315E-09  1.0E-07
  2.250E-04  3.85530E-12  4.34322E-15  1.55099E+02  9.16104E-09  1.0E-07
  2.500E-04  4.75964E-12  4.34322E-15  1.55099E+02  1.01789E-08  1.0E-07
  2.750E-04  5.75917E-12  4.34322E-15  1.55099E+02  1.11968E-08  1.0E-07
  3.000E-04  6.85391E-12  4.34322E-15  1.55099E+02  1.22147E-08  1.0E-07
  3.250E-04  8.04379E-12  4.34322E-15  1.55099E+02  1.32326E-08  1.0E-07
  3.500E-04  9.32893E-12  4.34322E-15  1.55099E+02  1.42505E-08  1.0E-07
  3.750E-04  1.07092E-11  4.34322E-15  1.55099E+02  1.52684E-08  1.0E-07
  4.000E-04  1.21847E-11  4.34322E-15  1.55099E+02  1.62863E-08  1.0E-07
  4.250E-04  1.37554E-11  4.34322E-15  1.55099E+02  1.73042E-08  1.0E-07
  4.500E-04  1.54213E-11  4.34322E-15  1.55099E+02  1.83221E-08  1.0E-07
  4.750E-04  1.71823E-11  4.34322E-15  1.55099E+02  1.93400E-08  1.0E-07
  5.000E-04  1.90386E-11  4.34322E-15  1.55099E+02  2.03579E-08  1.0E-07
  5.250E-04  2.09900E-11  4.34322E-15  1.55099E+02  2.13758E-08  1.0E-07
  5.500E-04  2.30367E-11  4.34322E-15  1.55099E+02  2.23937E-08  1.0E-07
  5.750E-04  2.51785E-11  4.34322E-15  1.55099E+02  2.34116E-08  1.0E-07
  6.000E-04  2.74156E-11  4.34322E-15  1.55099E+02  2.44294E-08  1.0E-07
  6.250E-04  2.97478E-11  4.34322E-15  1.55099E+02  2.54473E-08  1.0E-07
  6.500E-04  3.21752E-11  4.34322E-15  1.55099E+02  2.64652E-08  1.0E-07
  6.750E-04  3.46979E-11  4.34322E-15  1.55099E+02  2.74831E-08  1.0E-07
  7.000E-04  3.73157E-11  4.34322E-15  1.55099E+02  2.85010E-08  1.0E-07
  7.250E-04  4.00286E-11  4.34322E-15  1.55099E+02  2.95189E-08  1.0E-07
  7.500E-04  4.28368E-11  4.34322E-15  1.55099E+02  3.05368E-08  1.0E-07
  7.750E-04  4.57402E-11  4.34322E-15  1.55099E+02  3.15547E-08  1.0E-07
  8.000E-04  4.87388E-11  4.34322E-15  1.55099E+02  3.25726E-08  1.0E-07
  8.250E-04  5.18325E-11  4.34322E-15  1.55099E+02  3.35905E-08  1.0E-07
  8.500E-04  5.50215E-11  4.34322E-15  1.55099E+02  3.46084E-08  1.0E-07
  8.750E-04  5.83057E-11  4.34322E-15  1.55099E+02  3.56263E-08  1.0E-07
  9.000E-04  6.16850E-11  4.34322E-15  1.55099E+02  3.66442E-08  1.0E-07
  9.250E-04  6.51595E-11  4.34322E-15  1.55099E+02  3.76621E-08  1.0E-07
  9.500E-04  6.87293E-11  4.34322E-15  1.55099E+02  3.86800E-08  1.0E-07
  9.750E-04  7.23943E-11  4.34322E-15  1.55099E+02  3.96979E-08  1.0E-07
  1.000E-03  7.61544E-11  4.34322E-15  1.55099E+02  4.07157E-08  1.0E-07
  1.250E-03  1.18991E-10  4.34322E-15  1.55099E+02  5.08947E-08  1.0E-07
  1.500E-03  1.71347E-10  4.34322E-15  1.55099E+02  6.10736E-08  1.0E-07
  1.750E-03  2.33223E-10  4.34322E-15  1.55099E+02  7.12526E-08  1.0E-07
  2.000E-03  3.04617E-10  4.34322E-15  1.55099E+02  8.14315E-08  1.0E-07
  2.250E-03  3.85531E-10  4.34322E-15  1.55099E+02  9.16104E-08  1.0E-07
  2.500E-03  4.75965E-10  4.34322E-15  1.55099E+02  1.01789E-07  1.0E-07
  2.750E-03  5.75917E-10  4.34322E-15  1.55099E+02  1.11968E-07  1.0E-07
  3.000E-03  6.85389E-10  4.34322E-15  1.55099E+02  1.22147E-07  1.0E-07
  3.250E-03  8.04380E-10  4.34322E-15  1.55099E+02  1.32326E-07  1.0E-07
  3.500E-03  9.32891E-10  4.34322E-15  1.55099E+02  1.42505E-07  1.0E-07
  3.750E-03  1.07092E-09  4.34322E-15  1.55099E+02  1.52684E-07  1.0E-07
  4.000E-03  1.21847E-09  4.34322E-15  1.55099E+02  1.62863E-07  1.0E-07
  4.250E-03  1.37554E-09  4.34322E-15  1.55099E+02  1.73042E-07  1.0E-07
  4.500E-03  1.54213E-09  4.34322E-15  1.55099E+02  1.83221E-07  1.0E-07
  4.750E-03  1.71823E-09  4.34322E-15  1.55099E+02  1.93400E-07  1.0E-07
  5.000E-03  1.90386E-09  4.34322E-15  1.55099E+02  2.03579E-07  1.0E-07
  5.250E-03  2.09900E-09  4.34322E-15  1.55099E+02  2.13758E-07  1.0E-07
  5.500E-03  2.30367E-09  4.34322E-15  1.55099E+02  2.23937E-07  1.0E-07
  5.750E-03  2.51785E-09  4.34322E-15  1.55099E+02  2.34116E-07  1.0E-07
  6.000E-03  2.74156E-09  4.34322E-15  1.55099E+02  2.44295E-07  1.0E-07
  6.250E-03  2.97478E-09  4.34321E-15  1.55099E+02  2.54474E-07  1.0E-07
  6.500E-03  3.21752E-09  4.34321E-15  1.55099E+02  2.64653E-07  1.0E-07
  6.750E-03  3.46978E-09  4.34321E-15  1.55099E+02  2.74832E-07  1.0E-07
  7.000E-03  3.73156E-09  4.34321E-15  1.55099E+02  2.85011E-07  1.0E-07
  7.250E-03  4.00286E-09  4.34321E-15  1.55099E+02  2.95190E-07  1.0E-07
  7.500E-03  4.28368E-09  4.34321E-15  1.55099E+02  3.05369E-07  1.0E-07
  7.750E-03  4.57402E-09  4.34321E-15  1.55099E+02  3.15548E-07  1.0E-07
  8.000E-03  4.87388E-09  4.34321E-15  1.55099E+02  3.25727E-07  1.0E-07
  8.250E-03  5.18326E-09  4.34321E-15  1.55099E+02  3.35906E-07  1.0E-07
  8.500E-03  5.50215E-09  4.34321E-15  1.55099E+02  3.46085E-07  1.0E-07
  8.750E-03  5.83057E-09  4.34320E-15  1.55099E+02  3.56264E-07  1.0E-07
  9.000E-03  6.16850E-09  4.34320E-15  1.55099E+02  3.66443E-07  1.0E-07
  9.250E-03  6.51596E-09  4.34320E-15  1.55099E+02  3.76622E-07  1.0E-07
  9.500E-03  6.87293E-09  4.34320E-15  1.55099E+02  3.86801E-07  1.0E-07
  9.750E-03  7.23942E-09  4.34320E-15  1.55098E+02  3.96980E-07  1.0E-07
  1.000E-02  7.61544E-09  4.34320E-15  1.55098E+02  4.07159E-07  1.0E-07
  1.250E-02  1.18991E-08  4.34318E-15  1.55098E+02  5.08949E-07  1.0E-07
  1.500E-02  1.71347E-08  4.34317E-15  1.55097E+02  6.10740E-07  1.0E-07
  1.750E-02  2.33223E-08  4.34315E-15  1.55097E+02  7.12532E-07  1.0E-07
  2.000E-02  3.04617E-08  4.34312E-15  1.55096E+02  8.14325E-07  1.0E-07
  2.250E-02  3.85531E-08  4.34309E-15  1.55095E+02  9.16119E-07  1.0E-07
  2.500E-02  4.75965E-08  4.34306E-15  1.55094E+02  1.01791E-06  1.0E-07
  2.750E-02  5.75917E-08  4.34303E-15  1.55092E+02  1.11971E-06  1.0E-07
  3.000E-02  6.85389E-08  4.34299E-15  1.55091E+02  1.22151E-06  1.0E-07
  3.250E-02  8.04380E-08  4.34295E-15  1.55090E+02  1.32331E-06  1.0E-07
  3.500E-02  9.32891E-08  4.34291E-15  1.55088E+02  1.42511E-06  1.0E-07
  3.750E-02  1.07092E-07  4.34286E-15  1.55087E+02  1.52691E-06  1.0E-07
  4.000E-02  1.21847E-07  4.34282E-15  1.55085E+02  1.62871E-06  1.0E-07
  4.250E-02  1.37554E-07  4.34276E-15  1.55083E+02  1.73052E-06  1.0E-07
  4.500E-02  1.54213E-07  4.34271E-15  1.55081E+02  1.83232E-06  1.0E-07
  4.750E-02  1.71823E-07  4.34265E-15  1.55079E+02  1.93413E-06  1.0E-07
  5.000E-02  1.90386E-07  4.34259E-15  1.55077E+02  2.03595E-06  1.0E-07
  5.250E-02  2.09900E-07  4.34252E-15  1.55074E+02  2.13776E-06  1.0E-07
  5.500E-02  2.30367E-07  4.34245E-15  1.55072E+02  2.23958E-06  1.0E-07
  5.750E-02  2.51785E-07  4.34238E-15  1.55069E+02  2.34140E-06  1.0E-07
  6.000E-02  2.74156E-07  4.34230E-15  1.55067E+02  2.44322E-06  1.0E-07
  6.250E-02  2.97478E-07  4.34223E-15  1.55064E+02  2.54504E-06  1.0E-07
  6.500E-02  3.21752E-07  4.34214E-15  1.55061E+02  2.64687E-06  1.0E-07
  6.750E-02  3.46978E-07  4.34206E-15  1.55058E+02  2.74870E-06  1.0E-07
  7.000E-02  3.73156E-07  4.34197E-15  1.55055E+02  2.85053E-06  1.0E-07
  7.250E-02  4.00286E-07  4.34188E-15  1.55051E+02  2.95237E-06  1.0E-07
  7.500E-02  4.28368E-07  4.34179E-15  1.55048E+02  3.05421E-06  1.0E-07
  7.750E-02  4.57402E-07  4.34169E-15  1.55045E+02  3.15606E-06  1.0E-07
  8.000E-02  4.87388E-07  4.34159E-15  1.55041E+02  3.25791E-06  1.0E-07
  8.250E-02  5.18325E-07  4.34149E-15  1.55037E+02  3.35976E-06  1.0E-07
  8.500E-02  5.50215E-07  4.34138E-15  1.55033E+02  3.46161E-06  1.0E-07
  8.750E-02  5.83057E-07  4.34127E-15  1.55030E+02  3.56347E-06  1.0E-07
  9.000E-02  6.16850E-07  4.34115E-15  1.55025E+02  3.66534E-06  1.0E-07
  9.250E-02  6.51596E-07  4.34104E-15  1.55021E+02  3.76720E-06  1.0E-07
  9.500E-02  6.87293E-07  4.34092E-15  1.55017E+02  3.86908E-06  1.0E-07
  9.750E-02  7.23942E-07  4.34080E-15  1.55013E+02  3.97095E-06  1.0E-07
  1.000E-01  7.61543E-07  4.34067E-15  1.55008E+02  4.07284E-06  1.0E-07
  1.250E-01  1.18991E-06  4.33923E-15  1.54957E+02  5.09193E-06  1.0E-07
  1.500E-01  1.71347E-06  4.33748E-15  1.54894E+02  6.11162E-06  1.0E-07
  1.750E-01  2.33223E-06  4.33541E-15  1.54820E+02  7.13202E-06  1.0E-07
  2.000E-01  3.04617E-06  4.33302E-15  1.54735E+02  8.15324E-06  1.0E-07
  2.250E-01  3.85531E-06  4.33032E-15  1.54638E+02  9.17541E-06  1.0E-07
  2.500E-01  4.75964E-06  4.32730E-15  1.54531E+02  1.01986E-05  1.0E-07
  2.750E-01  5.75916E-06  4.32396E-15  1.54411E+02  1.12231E-05  1.0E-07
  3.000E-01  6.85388E-06  4.32032E-15  1.54281E+02  1.22488E-05  1.0E-07
  3.250E-01  8.04378E-06  4.31636E-15  1.54140E+02  1.32759E-05  1.0E-07
  3.500E-01  9.32888E-06  4.31209E-15  1.53987E+02  1.43046E-05  1.0E-07
  3.750E-01  1.07092E-05  4.30751E-15  1.53824E+02  1.53349E-05  1.0E-07
  4.000E-01  1.21846E-05  4.30262E-15  1.53649E+02  1.63670E-05  1.0E-07
  4.250E-01  1.37553E-05  4.29743E-15  1.53464E+02  1.74010E-05  1.0E-07
  4.500E-01  1.54212E-05  4.29193E-15  1.53268E+02  1.84370E-05  1.0E-07
  4.750E-01  1.71822E-05  4.28613E-15  1.53061E+02  1.94751E-05  1.0E-07
  5.000E-01  1.90385E-05  4.28003E-15  1.52843E+02  2.05155E-05  1.0E-07
  5.250E-01  2.09899E-05  4.27363E-15  1.52614E+02  2.15582E-05  1.0E-07
  5.500E-01  2.30365E-05  4.26694E-15  1.52375E+02  2.26034E-05  1.0E-07
  5.750E-01  2.51783E-05  4.25994E-15  1.52125E+02  2.36512E-05  1.0E-07
  6.000E-01  2.74153E-05  4.25266E-15  1.51865E+02  2.47018E-05  1.0E-07
  6.250E-01  2.97475E-05  4.24509E-15  1.51595E+02  2.57551E-05  1.0E-07
  6.500E-01  3.21749E-05  4.23723E-15  1.51314E+02  2.68114E-05  1.0E-07
  6.750E-01  3.46974E-05  4.22908E-15  1.51023E+02  2.78708E-05  1.0E-07
  7.000E-01  3.73152E-05  4.22065E-15  1.50722E+02  2.89334E-05  1.0E-07
  7.250E-01  4.00281E-05  4.21194E-15  1.50411E+02  2.99993E-05  1.0E-07
  7.500E-01  4.28362E-05  4.20295E-15  1.50090E+02  3.10685E-05  1.0E-07
  7.750E-01  4.57395E-05  4.19369E-15  1.49760E+02  3.21414E-05  1.0E-07
  8.000E-01  4.87380E-05  4.18416E-15  1.49419E+02  3.32178E-05  1.0E-07
  8.250E-01  5.18317E-05  4.17436E-15  1.49069E+02  3.42981E-05  1.0E-07
  8.500E-01  5.50205E-05  4.16429E-15  1.48710E+02  3.53822E-05  1.0E-07
  8.750E-01  5.83045E-05  4.15396E-15  1.48341E+02  3.64704E-05  1.0E-07
  9.000E-01  6.16838E-05  4.14337E-15  1.47963E+02  3.75627E-05  1.0E-07
  9.250E-01  6.51582E-05  4.13253E-15  1.47575E+02  3.86592E-05  1.0E-07
  9.500E-01  6.87277E-05  4.12143E-15  1.47179E+02  3.97600E-05  1.0E-07
  9.750E-01  7.23925E-05  4.11008E-15  1.46774E+02  4.08654E-05  1.0E-07
  1.000E+00  7.61524E-05  4.09849E-15  1.46360E+02  4.19753E-05  1.0E-07
  1.100E+00  9.21439E-05  4.04972E-15  1.44618E+02  4.64632E-05  1.0E-07
  1.200E+00  1.09658E-04  3.99729E-15  1.42746E+02  5.10338E-05  1.0E-07
  1.300E+00  1.28695E-04  3.94145E-15  1.40752E+02  5.56946E-05  1.0E-07
  1.400E+00  1.49255E-04  3.88244E-15  1.38645E+02  6.04527E-05  1.0E-07
  1.500E+00  1.71338E-04  3.82053E-15  1.36433E+02  6.53157E-05  1.0E-07
  1.600E+00  1.94942E-04  3.75596E-15  1.34128E+02  7.02906E-05  1.0E-07
  1.700E+00  2.20070E-04  3.68901E-15  1.31737E+02  7.53847E-05  1.0E-07
  1.800E+00  2.46720E-04  3.61994E-15  1.29270E+02  8.06051E-05  1.0E-07
  1.900E+00  2.74892E-04  3.54901E-15  1.26737E+02  8.59589E-05  1.0E-07
  2.000E+00  3.04586E-04  3.47647E-15  1.24147E+02  9.14530E-05  1.0E-07
  2.100E+00  3.35803E-04  3.40259E-15  1.21509E+02  9.70943E-05  1.0E-07
  2.200E+00  3.68542E-04  3.32760E-15  1.18831E+02  1.02890E-04  1.0E-07
  2.300E+00  4.02802E-04  3.25176E-15  1.16122E+02  1.08846E-04  1.0E-07
  2.400E+00  4.38585E-04  3.17528E-15  1.13391E+02  1.14969E-04  1.0E-07
  2.500E+00  4.75889E-04  3.09838E-15  1.10645E+02  1.21266E-04  1.0E-07
  2.600E+00  5.14715E-04  3.02128E-15  1.07892E+02  1.27742E-04  1.0E-07
  2.700E+00  5.55063E-04  2.94417E-15  1.05138E+02  1.34405E-04  1.0E-07
  2.800E+00  5.96931E-04  2.86723E-15  1.02391E+02  1.41259E-04  1.0E-07
  2.900E+00  6.40321E-04  2.79064E-15  9.96557E+01  1.48311E-04  1.0E-07
  3.000E+00  6.85233E-04  2.71456E-15  9.69388E+01  1.55567E-04  1.0E-07
  3.100E+00  7.31665E-04  2.63913E-15  9.42452E+01  1.63031E-04  1.0E-07
  3.200E+00  7.79618E-04  2.56449E-15  9.15796E+01  1.70709E-04  1.0E-07
  3.300E+00  8.29092E-04  2.49076E-15  8.89466E+01  1.78606E-04  1.0E-07
  3.400E+00  8.80086E-04  2.41804E-15  8.63499E+01  1.86725E-04  1.0E-07
  3.500E+00  9.32601E-04  2.34644E-15  8.37930E+01  1.95073E-04  1.0E-07
  3.600E+00  9.86636E-04  2.27605E-15  8.12791E+01  2.03653E-04  1.0E-07
  3.700E+00  1.04219E-03  2.20693E-15  7.88108E+01  2.12468E-04  1.0E-07
  3.800E+00  1.09927E-03  2.13915E-15  7.63904E+01  2.21523E-04  1.0E-07
  3.900E+00  1.15786E-03  2.07277E-15  7.40200E+01  2.30820E-04  1.0E-07
  4.000E+00  1.21797E-03  2.00784E-15  7.17011E+01  2.40363E-04  1.0E-07
  4.100E+00  1.27961E-03  1.94438E-15  6.94351E+01  2.50153E-04  1.0E-07
  4.200E+00  1.34276E-03  1.88244E-15  6.72230E+01  2.60194E-04  1.0E-07
  4.300E+00  1.40743E-03  1.82202E-15  6.50656E+01  2.70486E-04  1.0E-07
  4.400E+00  1.47362E-03  1.76316E-15  6.29635E+01  2.81032E-04  1.0E-07
  4.500E+00  1.54133E-03  1.70585E-15  6.09168E+01  2.91832E-04  1.0E-07
  4.600E+00  1.61056E-03  1.65009E-15  5.89258E+01  3.02887E-04  1.0E-07
  4.700E+00  1.68131E-03  1.59589E-15  5.69904E+01  3.14197E-04  1.0E-07
  4.800E+00  1.75357E-03  1.54324E-15  5.51102E+01  3.25761E-04  1.0E-07
  4.900E+00  1.82735E-03  1.49213E-15  5.32848E+01  3.37579E-04  1.0E-07
  5.000E+00  1.90265E-03  1.44254E-15  5.15139E+01  3.49648E-04  1.0E-07
  5.100E+00  1.97947E-03  1.39445E-15  4.97966E+01  3.61969E-04  1.0E-07
  5.200E+00  2.05780E-03  1.34784E-15  4.81322E+01  3.74537E-04  1.0E-07
  5.300E+00  2.13765E-03  1.30269E-15  4.65199E+01  3.87350E-04  1.0E-07
  5.400E+00  2.21902E-03  1.25897E-15  4.49587E+01  4.00404E-04  1.0E-07
  5.500E+00  2.30190E-03  1.21666E-15  4.34478E+01  4.13695E-04  1.0E-07
  5.600E+00  2.38630E-03  1.17572E-15  4.19859E+01  4.27219E-04  1.0E-07
  5.700E+00  2.47222E-03  1.13613E-15  4.05720E+01  4.40969E-04  1.0E-07
  5.800E+00  2.55965E-03  1.09785E-15  3.92051E+01  4.54940E-04  1.0E-07
  5.900E+00  2.64859E-03  1.06086E-15  3.78839E+01  4.69124E-04  1.0E-07
  6.000E+00  2.73905E-03  1.02511E-15  3.66073E+01  4.83515E-04  1.0E-07
  6.100E+00  2.83103E-03  9.90574E-16  3.53740E+01  4.98104E-04  1.0E-07
  6.200E+00  2.92452E-03  9.57222E-16  3.41830E+01  5.12882E-04  1.0E-07
  6.300E+00  3.01952E-03  9.25019E-16  3.30330E+01  5.27839E-04  1.0E-07
  6.400E+00  3.11604E-03  8.93931E-16  3.19228E+01  5.42965E-04  1.0E-07
  6.500E+00  3.21407E-03  8.63925E-16  3.08513E+01  5.58248E-04  1.0E-07
  6.600E+00  3.31362E-03  8.34968E-16  2.98172E+01  5.73676E-04  1.0E-07
  6.700E+00  3.41468E-03  8.07027E-16  2.88195E+01  5.89236E-04  1.0E-07
  6.800E+00  3.51725E-03  7.80071E-16  2.78569E+01  6.04914E-04  1.0E-07
  6.900E+00  3.62133E-03  7.54068E-16  2.69283E+01  6.20695E-04  1.0E-07
  7.000E+00  3.72692E-03  7.28988E-16  2.60326E+01  6.36563E-04  1.0E-07
  7.100E+00  3.83403E-03  7.04799E-16  2.51688E+01  6.52501E-04  1.0E-07
  7.200E+00  3.94265E-03  6.81471E-16  2.43358E+01  6.68493E-04  1.0E-07
  7.300E+00  4.05278E-03  6.58977E-16  2.35325E+01  6.84518E-04  1.0E-07
  7.400E+00  4.16442E-03  6.37288E-16  2.27580E+01  7.00558E-04  1.0E-07
  7.500E+00  4.27757E-03  6.16375E-16  2.20111E+01  7.16592E-04  1.0E-07
  7.600E+00  4.39223E-03  5.96212E-16  2.12911E+01  7.32598E-04  1.0E-07
  7.700E+00  4.50840E-03  5.76774E-16  2.05970E+01  7.48553E-04  1.0E-07
  7.800E+00  4.62608E-03  5.58034E-16  1.99277E+01  7.64433E-04  1.0E-07
  7.900E+00  4.74527E-03  5.39967E-16  1.92826E+01  7.80215E-04  1.0E-07
  8.000E+00  4.86597E-03  5.22551E-16  1.86606E+01  7.95871E-04  1.0E-07
  8.100E+00  4.98817E-03  5.05762E-16  1.80611E+01  8.11375E-04  1.0E-07
  8.200E+00  5.11188E-03  4.89576E-16  1.74831E+01  8.26699E-04  1.0E-07
  8.300E+00  5.23711E-03  4.73973E-16  1.69259E+01  8.41814E-04  1.0E-07
  8.400E+00  5.36383E-03  4.58932E-16  1.63888E+01  8.56689E-04  1.0E-07
  8.500E+00  5.49207E-03  4.44432E-16  1.58710E+01  8.71294E-04  1.0E-07
  8.600E+00  5.62181E-03  4.30453E-16  1.53718E+01  8.85597E-04  1.0E-07
  8.700E+00  5.75306E-03  4.16977E-16  1.48905E+01  8.99563E-04  1.0E-07
  8.800E+00  5.88581E-03  4.03984E-16  1.44265E+01  9.13159E-04  1.0E-07
  8.900E+00  6.02007E-03  3.91458E-16  1.39792E+01  9.26349E-04  1.0E-07
  9.000E+00  6.15583E-03  3.79382E-16  1.35480E+01  9.39098E-04  1.0E-07
  9.100E+00  6.29310E-03  3.67737E-16  1.31321E+01  9.51367E-04  1.0E-07
  9.200E+00  6.43187E-03  3.56510E-16  1.27312E+01  9.63120E-04  1.0E-07
  9.300E+00  6.57214E-03  3.45684E-16  1.23446E+01  9.74316E-04  1.0E-07
  9.400E+00  6.71392E-03  3.35244E-16  1.19718E+01  9.84916E-04  1.0E-07
  9.500E+00  6.85720E-03  3.25177E-16  1.16123E+01  9.94879E-04  1.0E-07
  9.600E+00  7.00198E-03  3.15468E-16  1.12656E+01  1.00416E-03  1.0E-07
  9.700E+00  7.14827E-03  3.06105E-16  1.09312E+01  1.01273E-03  1.0E-07
  9.800E+00  7.29605E-03  2.97073E-16  1.06087E+01  1.02053E-03  1.0E-07
  9.900E+00  7.44534E-03  2.88362E-16  1.02976E+01  1.02752E-03  1.0E-07
  1.000E+01  7.59612E-03  2.79959E-16  9.99753E+00  1.03367E-03  1.0E-07
  1.025E+01  7.97965E-03  2.60226E-16  9.29285E+00  1.04501E-03  1.0E-07
  1.050E+01  8.37255E-03  2.42182E-16  8.64847E+00  1.05005E-03  1.0E-07
  1.075E+01  8.77480E-03  2.25673E-16  8.05894E+00  1.04807E-03  1.0E-07
  1.100E+01  9.18641E-03  2.10562E-16  7.51930E+00  1.03836E-03  1.0E-07
  1.125E+01  9.60736E-03  1.96721E-16  7.02504E+00  1.02020E-03  1.0E-07
  1.150E+01  1.00376E-02  1.84037E-16  6.57208E+00  9.92905E-04  1.0E-07
  1.175E+01  1.04773E-02  1.72405E-16  6.15668E+00  9.55793E-04  1.0E-07
  1.200E+01  1.09262E-02  1.61729E-16  5.77546E+00  9.08231E-04  1.0E-07
  1.225E+01  1.13844E-02  1.51925E-16  5.42533E+00  8.49619E-04  1.0E-07
  1.250E+01  1.18520E-02  1.42913E-16  5.10350E+00  7.79411E-04  1.0E-07
  1.275E+01  1.23288E-02  1.34622E-16  4.80743E+00  6.97114E-04  1.0E-07
  1.300E+01  1.28150E-02  1.26987E-16  4.53479E+00  6.02299E-04  1.0E-07
  1.325E+01  1.33104E-02  1.19950E-16  4.28349E+00  4.94607E-04  1.0E-07
  1.350E+01  1.38150E-02  1.13457E-16  4.05163E+00  3.73748E-04  1.0E-07
  1.375E+01  1.43290E-02  1.07460E-16  3.83745E+00  2.39508E-04  1.0E-07
  1.400E+01  1.48521E-02  1.01914E-16  3.63940E+00  9.17500E-05  1.0E-07
  1.425E+01  1.53845E-02  9.67787E-17  3.45603E+00 -6.95868E-05  1.0E-07
  1.450E+01  1.59262E-02  9.20187E-17  3.28605E+00 -2.44488E-04  1.0E-07
  1.475E+01  1.64770E-02  8.76005E-17  3.12827E+00 -4.32867E-04  1.0E-07
  1.500E+01  1.70371E-02  8.34940E-17  2.98162E+00 -6.34566E-04  1.0E-07
  1.525E+01  1.76063E-02  7.96719E-17  2.84514E+00 -8.49362E-04  1.0E-07
  1.550E+01  1.81848E-02  7.61096E-17  2.71792E+00 -1.07697E-03  1.0E-07
