 #
 # Subroutine ELSEPA. Elastic scattering of electrons and positrons
 #                    by neutral atoms and positive ions
 #
 # Projectile: electron
 # Kinetic energy = 4.50000E+02 eV = 1.65372E+01 a.u.
 #
 # Element: Hg,  Z =  80,  atomic weight = 2.00590E+02 g/mol
 #
 # Nuclear model: Fermi distribution
 #                Average radius = 6.26355E-13 cm
 #                Skin thickness = 5.46000E-14 cm
 #
 # Number of electrons = 80
 #
 # Electron density: Read from file z_080.den   
 #                   Number of data points =  763
 #                   Volume integral = 8.00000E+01
 #
 # Furness-McCarthy exchange potential
 #
 # Total elastic cross section = 3.96058E-16 cm**2 = 1.41435E+01 a0**2
 # 1st transport cross section = 1.01090E-16 cm**2 = 3.60998E+00 a0**2
 # 2nd transport cross section = 1.34329E-16 cm**2 = 4.79698E+00 a0**2
 #
 #
 # Differential cross section:                       MU=(1-COS(THETA))/2
 #
 #  THETA        MU          DCS          DCS        Sherman      error
 #  (deg)                 (cm**2/sr)   (a0**2/sr)    function
 #----------------------------------------------------------------------
  0.000E+00  0.00000E+00  2.56421E-15  9.15698E+01  0.00000E+00  1.0E-07
  1.000E-04  7.61557E-13  2.56421E-15  9.15698E+01  1.31941E-08  1.0E-07
  1.250E-04  1.18994E-12  2.56421E-15  9.15698E+01  1.64926E-08  1.0E-07
  1.500E-04  1.71346E-12  2.56421E-15  9.15698E+01  1.97911E-08  1.0E-07
  1.750E-04  2.33225E-12  2.56421E-15  9.15698E+01  2.30896E-08  1.0E-07
  2.000E-04  3.04617E-12  2.56421E-15  9.15698E+01  2.63882E-08  1.0E-07
  2.250E-04  3.85530E-12  2.56421E-15  9.15698E+01  2.96867E-08  1.0E-07
  2.500E-04  4.75964E-12  2.56421E-15  9.15698E+01  3.29852E-08  1.0E-07
  2.750E-04  5.75917E-12  2.56421E-15  9.15698E+01  3.62837E-08  1.0E-07
  3.000E-04  6.85391E-12  2.56421E-15  9.15698E+01  3.95822E-08  1.0E-07
  3.250E-04  8.04379E-12  2.56421E-15  9.15698E+01  4.28808E-08  1.0E-07
  3.500E-04  9.32893E-12  2.56421E-15  9.15698E+01  4.61793E-08  1.0E-07
  3.750E-04  1.07092E-11  2.56421E-15  9.15698E+01  4.94778E-08  1.0E-07
  4.000E-04  1.21847E-11  2.56421E-15  9.15698E+01  5.27763E-08  1.0E-07
  4.250E-04  1.37554E-11  2.56421E-15  9.15698E+01  5.60748E-08  1.0E-07
  4.500E-04  1.54213E-11  2.56421E-15  9.15698E+01  5.93733E-08  1.0E-07
  4.750E-04  1.71823E-11  2.56421E-15  9.15698E+01  6.26719E-08  1.0E-07
  5.000E-04  1.90386E-11  2.56421E-15  9.15698E+01  6.59704E-08  1.0E-07
  5.250E-04  2.09900E-11  2.56421E-15  9.15698E+01  6.92689E-08  1.0E-07
  5.500E-04  2.30367E-11  2.56421E-15  9.15698E+01  7.25674E-08  1.0E-07
  5.750E-04  2.51785E-11  2.56421E-15  9.15698E+01  7.58659E-08  1.0E-07
  6.000E-04  2.74156E-11  2.56421E-15  9.15698E+01  7.91645E-08  1.0E-07
  6.250E-04  2.97478E-11  2.56421E-15  9.15698E+01  8.24630E-08  1.0E-07
  6.500E-04  3.21752E-11  2.56421E-15  9.15698E+01  8.57615E-08  1.0E-07
  6.750E-04  3.46979E-11  2.56421E-15  9.15698E+01  8.90600E-08  1.0E-07
  7.000E-04  3.73157E-11  2.56421E-15  9.15698E+01  9.23585E-08  1.0E-07
  7.250E-04  4.00286E-11  2.56421E-15  9.15698E+01  9.56571E-08  1.0E-07
  7.500E-04  4.28368E-11  2.56421E-15  9.15698E+01  9.89556E-08  1.0E-07
  7.750E-04  4.57402E-11  2.56421E-15  9.15698E+01  1.02254E-07  1.0E-07
  8.000E-04  4.87388E-11  2.56421E-15  9.15698E+01  1.05553E-07  1.0E-07
  8.250E-04  5.18325E-11  2.56421E-15  9.15698E+01  1.08851E-07  1.0E-07
  8.500E-04  5.50215E-11  2.56421E-15  9.15698E+01  1.12150E-07  1.0E-07
  8.750E-04  5.83057E-11  2.56421E-15  9.15698E+01  1.15448E-07  1.0E-07
  9.000E-04  6.16850E-11  2.56421E-15  9.15698E+01  1.18747E-07  1.0E-07
  9.250E-04  6.51595E-11  2.56421E-15  9.15698E+01  1.22045E-07  1.0E-07
  9.500E-04  6.87293E-11  2.56421E-15  9.15698E+01  1.25344E-07  1.0E-07
  9.750E-04  7.23943E-11  2.56421E-15  9.15698E+01  1.28642E-07  1.0E-07
  1.000E-03  7.61544E-11  2.56421E-15  9.15698E+01  1.31941E-07  1.0E-07
  1.250E-03  1.18991E-10  2.56421E-15  9.15698E+01  1.64926E-07  1.0E-07
  1.500E-03  1.71347E-10  2.56421E-15  9.15698E+01  1.97911E-07  1.0E-07
  1.750E-03  2.33223E-10  2.56421E-15  9.15698E+01  2.30896E-07  1.0E-07
  2.000E-03  3.04617E-10  2.56421E-15  9.15698E+01  2.63882E-07  1.0E-07
  2.250E-03  3.85531E-10  2.56421E-15  9.15698E+01  2.96867E-07  1.0E-07
  2.500E-03  4.75965E-10  2.56421E-15  9.15698E+01  3.29852E-07  1.0E-07
  2.750E-03  5.75917E-10  2.56421E-15  9.15698E+01  3.62837E-07  1.0E-07
  3.000E-03  6.85389E-10  2.56421E-15  9.15698E+01  3.95822E-07  1.0E-07
  3.250E-03  8.04380E-10  2.56421E-15  9.15698E+01  4.28808E-07  1.0E-07
  3.500E-03  9.32891E-10  2.56421E-15  9.15698E+01  4.61793E-07  1.0E-07
  3.750E-03  1.07092E-09  2.56421E-15  9.15698E+01  4.94778E-07  1.0E-07
  4.000E-03  1.21847E-09  2.56421E-15  9.15697E+01  5.27763E-07  1.0E-07
  4.250E-03  1.37554E-09  2.56421E-15  9.15697E+01  5.60748E-07  1.0E-07
  4.500E-03  1.54213E-09  2.56421E-15  9.15697E+01  5.93733E-07  1.0E-07
  4.750E-03  1.71823E-09  2.56421E-15  9.15697E+01  6.26719E-07  1.0E-07
  5.000E-03  1.90386E-09  2.56421E-15  9.15697E+01  6.59704E-07  1.0E-07
  5.250E-03  2.09900E-09  2.56421E-15  9.15697E+01  6.92689E-07  1.0E-07
  5.500E-03  2.30367E-09  2.56421E-15  9.15697E+01  7.25674E-07  1.0E-07
  5.750E-03  2.51785E-09  2.56421E-15  9.15697E+01  7.58659E-07  1.0E-07
  6.000E-03  2.74156E-09  2.56421E-15  9.15697E+01  7.91645E-07  1.0E-07
  6.250E-03  2.97478E-09  2.56421E-15  9.15697E+01  8.24630E-07  1.0E-07
  6.500E-03  3.21752E-09  2.56421E-15  9.15697E+01  8.57615E-07  1.0E-07
  6.750E-03  3.46978E-09  2.56421E-15  9.15697E+01  8.90600E-07  1.0E-07
  7.000E-03  3.73156E-09  2.56421E-15  9.15697E+01  9.23585E-07  1.0E-07
  7.250E-03  4.00286E-09  2.56421E-15  9.15697E+01  9.56571E-07  1.0E-07
  7.500E-03  4.28368E-09  2.56421E-15  9.15697E+01  9.89556E-07  1.0E-07
  7.750E-03  4.57402E-09  2.56421E-15  9.15697E+01  1.02254E-06  1.0E-07
  8.000E-03  4.87388E-09  2.56421E-15  9.15697E+01  1.05553E-06  1.0E-07
  8.250E-03  5.18326E-09  2.56421E-15  9.15697E+01  1.08851E-06  1.0E-07
  8.500E-03  5.50215E-09  2.56421E-15  9.15697E+01  1.12150E-06  1.0E-07
  8.750E-03  5.83057E-09  2.56421E-15  9.15697E+01  1.15448E-06  1.0E-07
  9.000E-03  6.16850E-09  2.56421E-15  9.15697E+01  1.18747E-06  1.0E-07
  9.250E-03  6.51596E-09  2.56421E-15  9.15697E+01  1.22045E-06  1.0E-07
  9.500E-03  6.87293E-09  2.56421E-15  9.15697E+01  1.25344E-06  1.0E-07
  9.750E-03  7.23942E-09  2.56421E-15  9.15697E+01  1.28642E-06  1.0E-07
  1.000E-02  7.61544E-09  2.56421E-15  9.15697E+01  1.31941E-06  1.0E-07
  1.250E-02  1.18991E-08  2.56421E-15  9.15696E+01  1.64926E-06  1.0E-07
  1.500E-02  1.71347E-08  2.56421E-15  9.15695E+01  1.97911E-06  1.0E-07
  1.750E-02  2.33223E-08  2.56420E-15  9.15694E+01  2.30896E-06  1.0E-07
  2.000E-02  3.04617E-08  2.56420E-15  9.15693E+01  2.63882E-06  1.0E-07
  2.250E-02  3.85531E-08  2.56420E-15  9.15692E+01  2.96867E-06  1.0E-07
  2.500E-02  4.75965E-08  2.56419E-15  9.15690E+01  3.29852E-06  1.0E-07
  2.750E-02  5.75917E-08  2.56419E-15  9.15689E+01  3.62837E-06  1.0E-07
  3.000E-02  6.85389E-08  2.56419E-15  9.15687E+01  3.95823E-06  1.0E-07
  3.250E-02  8.04380E-08  2.56418E-15  9.15685E+01  4.28808E-06  1.0E-07
  3.500E-02  9.32891E-08  2.56417E-15  9.15683E+01  4.61793E-06  1.0E-07
  3.750E-02  1.07092E-07  2.56417E-15  9.15681E+01  4.94779E-06  1.0E-07
  4.000E-02  1.21847E-07  2.56416E-15  9.15679E+01  5.27764E-06  1.0E-07
  4.250E-02  1.37554E-07  2.56416E-15  9.15677E+01  5.60749E-06  1.0E-07
  4.500E-02  1.54213E-07  2.56415E-15  9.15674E+01  5.93735E-06  1.0E-07
  4.750E-02  1.71823E-07  2.56414E-15  9.15671E+01  6.26720E-06  1.0E-07
  5.000E-02  1.90386E-07  2.56413E-15  9.15669E+01  6.59705E-06  1.0E-07
  5.250E-02  2.09900E-07  2.56412E-15  9.15666E+01  6.92691E-06  1.0E-07
  5.500E-02  2.30367E-07  2.56412E-15  9.15663E+01  7.25676E-06  1.0E-07
  5.750E-02  2.51785E-07  2.56411E-15  9.15659E+01  7.58662E-06  1.0E-07
  6.000E-02  2.74156E-07  2.56410E-15  9.15656E+01  7.91647E-06  1.0E-07
  6.250E-02  2.97478E-07  2.56409E-15  9.15652E+01  8.24633E-06  1.0E-07
  6.500E-02  3.21752E-07  2.56408E-15  9.15649E+01  8.57618E-06  1.0E-07
  6.750E-02  3.46978E-07  2.56407E-15  9.15645E+01  8.90604E-06  1.0E-07
  7.000E-02  3.73156E-07  2.56406E-15  9.15641E+01  9.23590E-06  1.0E-07
  7.250E-02  4.00286E-07  2.56404E-15  9.15637E+01  9.56575E-06  1.0E-07
  7.500E-02  4.28368E-07  2.56403E-15  9.15632E+01  9.89561E-06  1.0E-07
  7.750E-02  4.57402E-07  2.56402E-15  9.15628E+01  1.02255E-05  1.0E-07
  8.000E-02  4.87388E-07  2.56401E-15  9.15623E+01  1.05553E-05  1.0E-07
  8.250E-02  5.18325E-07  2.56399E-15  9.15619E+01  1.08852E-05  1.0E-07
  8.500E-02  5.50215E-07  2.56398E-15  9.15614E+01  1.12150E-05  1.0E-07
  8.750E-02  5.83057E-07  2.56397E-15  9.15609E+01  1.15449E-05  1.0E-07
  9.000E-02  6.16850E-07  2.56395E-15  9.15604E+01  1.18748E-05  1.0E-07
  9.250E-02  6.51596E-07  2.56394E-15  9.15598E+01  1.22046E-05  1.0E-07
  9.500E-02  6.87293E-07  2.56392E-15  9.15593E+01  1.25345E-05  1.0E-07
  9.750E-02  7.23942E-07  2.56391E-15  9.15587E+01  1.28643E-05  1.0E-07
  1.000E-01  7.61543E-07  2.56389E-15  9.15581E+01  1.31942E-05  1.0E-07
  1.250E-01  1.18991E-06  2.56371E-15  9.15516E+01  1.64928E-05  1.0E-07
  1.500E-01  1.71347E-06  2.56348E-15  9.15436E+01  1.97915E-05  1.0E-07
  1.750E-01  2.33223E-06  2.56322E-15  9.15342E+01  2.30903E-05  1.0E-07
  2.000E-01  3.04617E-06  2.56291E-15  9.15233E+01  2.63891E-05  1.0E-07
  2.250E-01  3.85531E-06  2.56257E-15  9.15110E+01  2.96880E-05  1.0E-07
  2.500E-01  4.75964E-06  2.56218E-15  9.14972E+01  3.29871E-05  1.0E-07
  2.750E-01  5.75916E-06  2.56176E-15  9.14820E+01  3.62862E-05  1.0E-07
  3.000E-01  6.85388E-06  2.56129E-15  9.14653E+01  3.95855E-05  1.0E-07
  3.250E-01  8.04378E-06  2.56078E-15  9.14471E+01  4.28849E-05  1.0E-07
  3.500E-01  9.32888E-06  2.56023E-15  9.14276E+01  4.61844E-05  1.0E-07
  3.750E-01  1.07092E-05  2.55964E-15  9.14066E+01  4.94841E-05  1.0E-07
  4.000E-01  1.21846E-05  2.55902E-15  9.13841E+01  5.27840E-05  1.0E-07
  4.250E-01  1.37553E-05  2.55835E-15  9.13602E+01  5.60841E-05  1.0E-07
  4.500E-01  1.54212E-05  2.55764E-15  9.13349E+01  5.93843E-05  1.0E-07
  4.750E-01  1.71822E-05  2.55689E-15  9.13081E+01  6.26847E-05  1.0E-07
  5.000E-01  1.90385E-05  2.55610E-15  9.12799E+01  6.59854E-05  1.0E-07
  5.250E-01  2.09899E-05  2.55527E-15  9.12503E+01  6.92862E-05  1.0E-07
  5.500E-01  2.30365E-05  2.55440E-15  9.12192E+01  7.25873E-05  1.0E-07
  5.750E-01  2.51783E-05  2.55349E-15  9.11867E+01  7.58887E-05  1.0E-07
  6.000E-01  2.74153E-05  2.55254E-15  9.11528E+01  7.91903E-05  1.0E-07
  6.250E-01  2.97475E-05  2.55155E-15  9.11174E+01  8.24921E-05  1.0E-07
  6.500E-01  3.21749E-05  2.55052E-15  9.10806E+01  8.57942E-05  1.0E-07
  6.750E-01  3.46974E-05  2.54945E-15  9.10425E+01  8.90966E-05  1.0E-07
  7.000E-01  3.73152E-05  2.54834E-15  9.10028E+01  9.23993E-05  1.0E-07
  7.250E-01  4.00281E-05  2.54719E-15  9.09618E+01  9.57023E-05  1.0E-07
  7.500E-01  4.28362E-05  2.54600E-15  9.09194E+01  9.90056E-05  1.0E-07
  7.750E-01  4.57395E-05  2.54477E-15  9.08755E+01  1.02309E-04  1.0E-07
  8.000E-01  4.87380E-05  2.54351E-15  9.08303E+01  1.05613E-04  1.0E-07
  8.250E-01  5.18317E-05  2.54220E-15  9.07836E+01  1.08917E-04  1.0E-07
  8.500E-01  5.50205E-05  2.54085E-15  9.07355E+01  1.12222E-04  1.0E-07
  8.750E-01  5.83045E-05  2.53947E-15  9.06861E+01  1.15527E-04  1.0E-07
  9.000E-01  6.16838E-05  2.53804E-15  9.06352E+01  1.18832E-04  1.0E-07
  9.250E-01  6.51582E-05  2.53658E-15  9.05830E+01  1.22138E-04  1.0E-07
  9.500E-01  6.87277E-05  2.53508E-15  9.05293E+01  1.25444E-04  1.0E-07
  9.750E-01  7.23925E-05  2.53354E-15  9.04743E+01  1.28751E-04  1.0E-07
  1.000E+00  7.61524E-05  2.53196E-15  9.04179E+01  1.32057E-04  1.0E-07
  1.100E+00  9.21439E-05  2.52526E-15  9.01786E+01  1.45289E-04  1.0E-07
  1.200E+00  1.09658E-04  2.51795E-15  8.99175E+01  1.58527E-04  1.0E-07
  1.300E+00  1.28695E-04  2.51003E-15  8.96349E+01  1.71772E-04  1.0E-07
  1.400E+00  1.49255E-04  2.50152E-15  8.93310E+01  1.85025E-04  1.0E-07
  1.500E+00  1.71338E-04  2.49243E-15  8.90062E+01  1.98286E-04  1.0E-07
  1.600E+00  1.94942E-04  2.48276E-15  8.86609E+01  2.11555E-04  1.0E-07
  1.700E+00  2.20070E-04  2.47252E-15  8.82953E+01  2.24831E-04  1.0E-07
  1.800E+00  2.46720E-04  2.46173E-15  8.79098E+01  2.38116E-04  1.0E-07
  1.900E+00  2.74892E-04  2.45038E-15  8.75048E+01  2.51408E-04  1.0E-07
  2.000E+00  3.04586E-04  2.43851E-15  8.70808E+01  2.64708E-04  1.0E-07
  2.100E+00  3.35803E-04  2.42611E-15  8.66380E+01  2.78016E-04  1.0E-07
  2.200E+00  3.68542E-04  2.41320E-15  8.61771E+01  2.91330E-04  1.0E-07
  2.300E+00  4.02802E-04  2.39980E-15  8.56983E+01  3.04652E-04  1.0E-07
  2.400E+00  4.38585E-04  2.38590E-15  8.52022E+01  3.17979E-04  1.0E-07
  2.500E+00  4.75889E-04  2.37154E-15  8.46892E+01  3.31311E-04  1.0E-07
  2.600E+00  5.14715E-04  2.35671E-15  8.41598E+01  3.44647E-04  1.0E-07
  2.700E+00  5.55063E-04  2.34144E-15  8.36145E+01  3.57987E-04  1.0E-07
  2.800E+00  5.96931E-04  2.32574E-15  8.30538E+01  3.71328E-04  1.0E-07
  2.900E+00  6.40321E-04  2.30963E-15  8.24783E+01  3.84671E-04  1.0E-07
  3.000E+00  6.85233E-04  2.29311E-15  8.18883E+01  3.98013E-04  1.0E-07
  3.100E+00  7.31665E-04  2.27620E-15  8.12845E+01  4.11352E-04  1.0E-07
  3.200E+00  7.79618E-04  2.25892E-15  8.06674E+01  4.24687E-04  1.0E-07
  3.300E+00  8.29092E-04  2.24128E-15  8.00375E+01  4.38017E-04  1.0E-07
  3.400E+00  8.80086E-04  2.22330E-15  7.93953E+01  4.51338E-04  1.0E-07
  3.500E+00  9.32601E-04  2.20499E-15  7.87415E+01  4.64648E-04  1.0E-07
  3.600E+00  9.86636E-04  2.18636E-15  7.80764E+01  4.77945E-04  1.0E-07
  3.700E+00  1.04219E-03  2.16744E-15  7.74008E+01  4.91227E-04  1.0E-07
  3.800E+00  1.09927E-03  2.14824E-15  7.67150E+01  5.04490E-04  1.0E-07
  3.900E+00  1.15786E-03  2.12877E-15  7.60198E+01  5.17731E-04  1.0E-07
  4.000E+00  1.21797E-03  2.10905E-15  7.53155E+01  5.30948E-04  1.0E-07
  4.100E+00  1.27961E-03  2.08909E-15  7.46029E+01  5.44135E-04  1.0E-07
  4.200E+00  1.34276E-03  2.06891E-15  7.38823E+01  5.57290E-04  1.0E-07
  4.300E+00  1.40743E-03  2.04853E-15  7.31543E+01  5.70409E-04  1.0E-07
  4.400E+00  1.47362E-03  2.02795E-15  7.24195E+01  5.83487E-04  1.0E-07
  4.500E+00  1.54133E-03  2.00720E-15  7.16784E+01  5.96520E-04  1.0E-07
  4.600E+00  1.61056E-03  1.98628E-15  7.09315E+01  6.09504E-04  1.0E-07
  4.700E+00  1.68131E-03  1.96522E-15  7.01793E+01  6.22432E-04  1.0E-07
  4.800E+00  1.75357E-03  1.94402E-15  6.94223E+01  6.35300E-04  1.0E-07
  4.900E+00  1.82735E-03  1.92271E-15  6.86611E+01  6.48103E-04  1.0E-07
  5.000E+00  1.90265E-03  1.90128E-15  6.78960E+01  6.60835E-04  1.0E-07
  5.100E+00  1.97947E-03  1.87977E-15  6.71277E+01  6.73489E-04  1.0E-07
  5.200E+00  2.05780E-03  1.85817E-15  6.63566E+01  6.86060E-04  1.0E-07
  5.300E+00  2.13765E-03  1.83652E-15  6.55831E+01  6.98540E-04  1.0E-07
  5.400E+00  2.21902E-03  1.81480E-15  6.48078E+01  7.10923E-04  1.0E-07
  5.500E+00  2.30190E-03  1.79305E-15  6.40310E+01  7.23201E-04  1.0E-07
  5.600E+00  2.38630E-03  1.77127E-15  6.32531E+01  7.35367E-04  1.0E-07
  5.700E+00  2.47222E-03  1.74947E-15  6.24747E+01  7.47414E-04  1.0E-07
  5.800E+00  2.55965E-03  1.72767E-15  6.16962E+01  7.59332E-04  1.0E-07
  5.900E+00  2.64859E-03  1.70587E-15  6.09178E+01  7.71114E-04  1.0E-07
  6.000E+00  2.73905E-03  1.68409E-15  6.01401E+01  7.82751E-04  1.0E-07
  6.100E+00  2.83103E-03  1.66234E-15  5.93634E+01  7.94233E-04  1.0E-07
  6.200E+00  2.92452E-03  1.64063E-15  5.85881E+01  8.05551E-04  1.0E-07
  6.300E+00  3.01952E-03  1.61897E-15  5.78145E+01  8.16695E-04  1.0E-07
  6.400E+00  3.11604E-03  1.59737E-15  5.70430E+01  8.27656E-04  1.0E-07
  6.500E+00  3.21407E-03  1.57583E-15  5.62740E+01  8.38422E-04  1.0E-07
  6.600E+00  3.31362E-03  1.55437E-15  5.55076E+01  8.48982E-04  1.0E-07
  6.700E+00  3.41468E-03  1.53300E-15  5.47443E+01  8.59326E-04  1.0E-07
  6.800E+00  3.51725E-03  1.51172E-15  5.39844E+01  8.69441E-04  1.0E-07
  6.900E+00  3.62133E-03  1.49054E-15  5.32281E+01  8.79316E-04  1.0E-07
  7.000E+00  3.72692E-03  1.46947E-15  5.24758E+01  8.88938E-04  1.0E-07
  7.100E+00  3.83403E-03  1.44852E-15  5.17276E+01  8.98295E-04  1.0E-07
  7.200E+00  3.94265E-03  1.42769E-15  5.09838E+01  9.07373E-04  1.0E-07
  7.300E+00  4.05278E-03  1.40700E-15  5.02447E+01  9.16158E-04  1.0E-07
  7.400E+00  4.16442E-03  1.38644E-15  4.95105E+01  9.24638E-04  1.0E-07
  7.500E+00  4.27757E-03  1.36602E-15  4.87814E+01  9.32796E-04  1.0E-07
  7.600E+00  4.39223E-03  1.34575E-15  4.80577E+01  9.40620E-04  1.0E-07
  7.700E+00  4.50840E-03  1.32564E-15  4.73394E+01  9.48093E-04  1.0E-07
  7.800E+00  4.62608E-03  1.30568E-15  4.66268E+01  9.55199E-04  1.0E-07
  7.900E+00  4.74527E-03  1.28590E-15  4.59202E+01  9.61924E-04  1.0E-07
  8.000E+00  4.86597E-03  1.26627E-15  4.52195E+01  9.68249E-04  1.0E-07
  8.100E+00  4.98817E-03  1.24683E-15  4.45250E+01  9.74160E-04  1.0E-07
  8.200E+00  5.11188E-03  1.22756E-15  4.38369E+01  9.79637E-04  1.0E-07
  8.300E+00  5.23711E-03  1.20847E-15  4.31552E+01  9.84664E-04  1.0E-07
  8.400E+00  5.36383E-03  1.18956E-15  4.24800E+01  9.89222E-04  1.0E-07
  8.500E+00  5.49207E-03  1.17084E-15  4.18116E+01  9.93293E-04  1.0E-07
  8.600E+00  5.62181E-03  1.15232E-15  4.11500E+01  9.96857E-04  1.0E-07
  8.700E+00  5.75306E-03  1.13398E-15  4.04952E+01  9.99896E-04  1.0E-07
  8.800E+00  5.88581E-03  1.11584E-15  3.98474E+01  1.00239E-03  1.0E-07
  8.900E+00  6.02007E-03  1.09790E-15  3.92067E+01  1.00431E-03  1.0E-07
  9.000E+00  6.15583E-03  1.08016E-15  3.85731E+01  1.00565E-03  1.0E-07
  9.100E+00  6.29310E-03  1.06262E-15  3.79467E+01  1.00638E-03  1.0E-07
  9.200E+00  6.43187E-03  1.04528E-15  3.73276E+01  1.00648E-03  1.0E-07
  9.300E+00  6.57214E-03  1.02814E-15  3.67157E+01  1.00593E-03  1.0E-07
  9.400E+00  6.71392E-03  1.01121E-15  3.61111E+01  1.00470E-03  1.0E-07
  9.500E+00  6.85720E-03  9.94491E-16  3.55139E+01  1.00278E-03  1.0E-07
  9.600E+00  7.00198E-03  9.77975E-16  3.49241E+01  1.00013E-03  1.0E-07
  9.700E+00  7.14827E-03  9.61666E-16  3.43417E+01  9.96732E-04  1.0E-07
  9.800E+00  7.29605E-03  9.45564E-16  3.37667E+01  9.92566E-04  1.0E-07
  9.900E+00  7.44534E-03  9.29671E-16  3.31992E+01  9.87603E-04  1.0E-07
  1.000E+01  7.59612E-03  9.13986E-16  3.26390E+01  9.81818E-04  1.0E-07
  1.025E+01  7.97965E-03  8.75681E-16  3.12711E+01  9.63588E-04  1.0E-07
  1.050E+01  8.37255E-03  8.38671E-16  2.99495E+01  9.39635E-04  1.0E-07
  1.075E+01  8.77480E-03  8.02945E-16  2.86737E+01  9.09516E-04  1.0E-07
  1.100E+01  9.18641E-03  7.68488E-16  2.74432E+01  8.72771E-04  1.0E-07
  1.125E+01  9.60736E-03  7.35283E-16  2.62574E+01  8.28919E-04  1.0E-07
  1.150E+01  1.00376E-02  7.03307E-16  2.51156E+01  7.77456E-04  1.0E-07
  1.175E+01  1.04773E-02  6.72537E-16  2.40167E+01  7.17860E-04  1.0E-07
  1.200E+01  1.09262E-02  6.42946E-16  2.29600E+01  6.49586E-04  1.0E-07
  1.225E+01  1.13844E-02  6.14505E-16  2.19444E+01  5.72069E-04  1.0E-07
  1.250E+01  1.18520E-02  5.87185E-16  2.09688E+01  4.84718E-04  1.0E-07
  1.275E+01  1.23288E-02  5.60954E-16  2.00320E+01  3.86923E-04  1.0E-07
  1.300E+01  1.28150E-02  5.35780E-16  1.91330E+01  2.78049E-04  1.0E-07
  1.325E+01  1.33104E-02  5.11630E-16  1.82706E+01  1.57437E-04  1.0E-07
  1.350E+01  1.38150E-02  4.88472E-16  1.74437E+01  2.44023E-05  1.0E-07
  1.375E+01  1.43290E-02  4.66273E-16  1.66509E+01 -1.21763E-04  1.0E-07
  1.400E+01  1.48521E-02  4.44999E-16  1.58912E+01 -2.81796E-04  1.0E-07
  1.425E+01  1.53845E-02  4.24618E-16  1.51634E+01 -4.56459E-04  1.0E-07
  1.450E+01  1.59262E-02  4.05097E-16  1.44663E+01 -6.46543E-04  1.0E-07
  1.475E+01  1.64770E-02  3.86405E-16  1.37988E+01 -8.52869E-04  1.0E-07
  1.500E+01  1.70371E-02  3.68510E-16  1.31597E+01 -1.07629E-03  1.0E-07
  1.525E+01  1.76063E-02  3.51381E-16  1.25481E+01 -1.31768E-03  1.0E-07
  1.550E+01  1.81848E-02  3.34990E-16  1.19627E+01 -1.57796E-03  1.0E-07
