 #
 # Subroutine ELSEPA. Elastic scattering of electrons and positrons
 #                    by neutral atoms and positive ions
 #
 # Projectile: electron
 # Kinetic energy = 4.00000E+01 eV = 1.46997E+00 a.u.
 #
 #  ***  WARNING: Energy is too low.
 #                The reliability of the results is questionable.
 #
 # Element: Hg,  Z =  80,  atomic weight = 2.00590E+02 g/mol
 #
 # Nuclear model: Fermi distribution
 #                Average radius = 6.26355E-13 cm
 #                Skin thickness = 5.46000E-14 cm
 #
 # Number of electrons = 80
 #
 # Electron density: Read from file z_080.den   
 #                   Number of data points =  763
 #                   Volume integral = 8.00000E+01
 #
 # Thomas-Fermi exchange potential
 #
 # Correlation-polarization potential (Buckingham):
 #                           Alpha = 5.10000E-24 cm**3
 #                            Bpol = 1.00000E+00
 #
 # Total elastic cross section = 1.14249E-15 cm**2 = 4.07989E+01 a0**2
 # 1st transport cross section = 7.30251E-16 cm**2 = 2.60778E+01 a0**2
 # 2nd transport cross section = 4.71230E-16 cm**2 = 1.68279E+01 a0**2
 #
 #
 # Differential cross section:                       MU=(1-COS(THETA))/2
 #
 #  THETA        MU          DCS          DCS        Sherman      error
 #  (deg)                 (cm**2/sr)   (a0**2/sr)    function
 #----------------------------------------------------------------------
  0.000E+00  0.00000E+00  5.60421E-15  2.00130E+02  0.00000E+00  1.0E-07
  1.000E-04  7.61557E-13  5.60421E-15  2.00130E+02  4.93078E-08  1.0E-07
  1.250E-04  1.18994E-12  5.60421E-15  2.00130E+02  6.16347E-08  1.0E-07
  1.500E-04  1.71346E-12  5.60421E-15  2.00130E+02  7.39616E-08  1.0E-07
  1.750E-04  2.33225E-12  5.60421E-15  2.00130E+02  8.62886E-08  1.0E-07
  2.000E-04  3.04617E-12  5.60421E-15  2.00130E+02  9.86155E-08  1.0E-07
  2.250E-04  3.85530E-12  5.60421E-15  2.00130E+02  1.10942E-07  1.0E-07
  2.500E-04  4.75964E-12  5.60421E-15  2.00130E+02  1.23269E-07  1.0E-07
  2.750E-04  5.75917E-12  5.60421E-15  2.00130E+02  1.35596E-07  1.0E-07
  3.000E-04  6.85391E-12  5.60421E-15  2.00130E+02  1.47923E-07  1.0E-07
  3.250E-04  8.04379E-12  5.60421E-15  2.00130E+02  1.60250E-07  1.0E-07
  3.500E-04  9.32893E-12  5.60421E-15  2.00130E+02  1.72577E-07  1.0E-07
  3.750E-04  1.07092E-11  5.60421E-15  2.00130E+02  1.84904E-07  1.0E-07
  4.000E-04  1.21847E-11  5.60421E-15  2.00130E+02  1.97231E-07  1.0E-07
  4.250E-04  1.37554E-11  5.60421E-15  2.00130E+02  2.09558E-07  1.0E-07
  4.500E-04  1.54213E-11  5.60421E-15  2.00130E+02  2.21885E-07  1.0E-07
  4.750E-04  1.71823E-11  5.60421E-15  2.00130E+02  2.34212E-07  1.0E-07
  5.000E-04  1.90386E-11  5.60421E-15  2.00130E+02  2.46539E-07  1.0E-07
  5.250E-04  2.09900E-11  5.60421E-15  2.00130E+02  2.58866E-07  1.0E-07
  5.500E-04  2.30367E-11  5.60421E-15  2.00130E+02  2.71193E-07  1.0E-07
  5.750E-04  2.51785E-11  5.60421E-15  2.00130E+02  2.83520E-07  1.0E-07
  6.000E-04  2.74156E-11  5.60421E-15  2.00130E+02  2.95847E-07  1.0E-07
  6.250E-04  2.97478E-11  5.60421E-15  2.00130E+02  3.08174E-07  1.0E-07
  6.500E-04  3.21752E-11  5.60421E-15  2.00130E+02  3.20500E-07  1.0E-07
  6.750E-04  3.46979E-11  5.60421E-15  2.00130E+02  3.32827E-07  1.0E-07
  7.000E-04  3.73157E-11  5.60421E-15  2.00130E+02  3.45154E-07  1.0E-07
  7.250E-04  4.00286E-11  5.60421E-15  2.00130E+02  3.57481E-07  1.0E-07
  7.500E-04  4.28368E-11  5.60421E-15  2.00130E+02  3.69808E-07  1.0E-07
  7.750E-04  4.57402E-11  5.60421E-15  2.00130E+02  3.82135E-07  1.0E-07
  8.000E-04  4.87388E-11  5.60421E-15  2.00130E+02  3.94462E-07  1.0E-07
  8.250E-04  5.18325E-11  5.60421E-15  2.00130E+02  4.06789E-07  1.0E-07
  8.500E-04  5.50215E-11  5.60421E-15  2.00130E+02  4.19116E-07  1.0E-07
  8.750E-04  5.83057E-11  5.60421E-15  2.00130E+02  4.31443E-07  1.0E-07
  9.000E-04  6.16850E-11  5.60421E-15  2.00130E+02  4.43770E-07  1.0E-07
  9.250E-04  6.51595E-11  5.60421E-15  2.00130E+02  4.56097E-07  1.0E-07
  9.500E-04  6.87293E-11  5.60421E-15  2.00130E+02  4.68424E-07  1.0E-07
  9.750E-04  7.23943E-11  5.60421E-15  2.00130E+02  4.80751E-07  1.0E-07
  1.000E-03  7.61544E-11  5.60421E-15  2.00130E+02  4.93078E-07  1.0E-07
  1.250E-03  1.18991E-10  5.60421E-15  2.00130E+02  6.16347E-07  1.0E-07
  1.500E-03  1.71347E-10  5.60421E-15  2.00130E+02  7.39617E-07  1.0E-07
  1.750E-03  2.33223E-10  5.60421E-15  2.00130E+02  8.62886E-07  1.0E-07
  2.000E-03  3.04617E-10  5.60421E-15  2.00130E+02  9.86155E-07  1.0E-07
  2.250E-03  3.85531E-10  5.60421E-15  2.00130E+02  1.10942E-06  1.0E-07
  2.500E-03  4.75965E-10  5.60421E-15  2.00130E+02  1.23269E-06  1.0E-07
  2.750E-03  5.75917E-10  5.60421E-15  2.00130E+02  1.35596E-06  1.0E-07
  3.000E-03  6.85389E-10  5.60421E-15  2.00130E+02  1.47923E-06  1.0E-07
  3.250E-03  8.04380E-10  5.60421E-15  2.00130E+02  1.60250E-06  1.0E-07
  3.500E-03  9.32891E-10  5.60421E-15  2.00130E+02  1.72577E-06  1.0E-07
  3.750E-03  1.07092E-09  5.60421E-15  2.00130E+02  1.84904E-06  1.0E-07
  4.000E-03  1.21847E-09  5.60421E-15  2.00130E+02  1.97231E-06  1.0E-07
  4.250E-03  1.37554E-09  5.60421E-15  2.00130E+02  2.09558E-06  1.0E-07
  4.500E-03  1.54213E-09  5.60421E-15  2.00130E+02  2.21885E-06  1.0E-07
  4.750E-03  1.71823E-09  5.60421E-15  2.00130E+02  2.34212E-06  1.0E-07
  5.000E-03  1.90386E-09  5.60420E-15  2.00130E+02  2.46539E-06  1.0E-07
  5.250E-03  2.09900E-09  5.60420E-15  2.00130E+02  2.58866E-06  1.0E-07
  5.500E-03  2.30367E-09  5.60420E-15  2.00130E+02  2.71193E-06  1.0E-07
  5.750E-03  2.51785E-09  5.60420E-15  2.00130E+02  2.83520E-06  1.0E-07
  6.000E-03  2.74156E-09  5.60420E-15  2.00130E+02  2.95847E-06  1.0E-07
  6.250E-03  2.97478E-09  5.60420E-15  2.00130E+02  3.08174E-06  1.0E-07
  6.500E-03  3.21752E-09  5.60420E-15  2.00130E+02  3.20501E-06  1.0E-07
  6.750E-03  3.46978E-09  5.60420E-15  2.00130E+02  3.32828E-06  1.0E-07
  7.000E-03  3.73156E-09  5.60420E-15  2.00130E+02  3.45155E-06  1.0E-07
  7.250E-03  4.00286E-09  5.60420E-15  2.00130E+02  3.57482E-06  1.0E-07
  7.500E-03  4.28368E-09  5.60420E-15  2.00130E+02  3.69809E-06  1.0E-07
  7.750E-03  4.57402E-09  5.60420E-15  2.00129E+02  3.82135E-06  1.0E-07
  8.000E-03  4.87388E-09  5.60420E-15  2.00129E+02  3.94462E-06  1.0E-07
  8.250E-03  5.18326E-09  5.60419E-15  2.00129E+02  4.06789E-06  1.0E-07
  8.500E-03  5.50215E-09  5.60419E-15  2.00129E+02  4.19116E-06  1.0E-07
  8.750E-03  5.83057E-09  5.60419E-15  2.00129E+02  4.31443E-06  1.0E-07
  9.000E-03  6.16850E-09  5.60419E-15  2.00129E+02  4.43770E-06  1.0E-07
  9.250E-03  6.51596E-09  5.60419E-15  2.00129E+02  4.56097E-06  1.0E-07
  9.500E-03  6.87293E-09  5.60419E-15  2.00129E+02  4.68424E-06  1.0E-07
  9.750E-03  7.23942E-09  5.60419E-15  2.00129E+02  4.80751E-06  1.0E-07
  1.000E-02  7.61544E-09  5.60419E-15  2.00129E+02  4.93078E-06  1.0E-07
  1.250E-02  1.18991E-08  5.60417E-15  2.00129E+02  6.16348E-06  1.0E-07
  1.500E-02  1.71347E-08  5.60416E-15  2.00128E+02  7.39619E-06  1.0E-07
  1.750E-02  2.33223E-08  5.60414E-15  2.00127E+02  8.62889E-06  1.0E-07
  2.000E-02  3.04617E-08  5.60411E-15  2.00127E+02  9.86161E-06  1.0E-07
  2.250E-02  3.85531E-08  5.60409E-15  2.00126E+02  1.10943E-05  1.0E-07
  2.500E-02  4.75965E-08  5.60406E-15  2.00125E+02  1.23270E-05  1.0E-07
  2.750E-02  5.75917E-08  5.60403E-15  2.00123E+02  1.35598E-05  1.0E-07
  3.000E-02  6.85389E-08  5.60399E-15  2.00122E+02  1.47925E-05  1.0E-07
  3.250E-02  8.04380E-08  5.60395E-15  2.00121E+02  1.60253E-05  1.0E-07
  3.500E-02  9.32891E-08  5.60391E-15  2.00119E+02  1.72580E-05  1.0E-07
  3.750E-02  1.07092E-07  5.60387E-15  2.00118E+02  1.84908E-05  1.0E-07
  4.000E-02  1.21847E-07  5.60382E-15  2.00116E+02  1.97235E-05  1.0E-07
  4.250E-02  1.37554E-07  5.60377E-15  2.00114E+02  2.09563E-05  1.0E-07
  4.500E-02  1.54213E-07  5.60372E-15  2.00112E+02  2.21891E-05  1.0E-07
  4.750E-02  1.71823E-07  5.60366E-15  2.00110E+02  2.34219E-05  1.0E-07
  5.000E-02  1.90386E-07  5.60360E-15  2.00108E+02  2.46547E-05  1.0E-07
  5.250E-02  2.09900E-07  5.60354E-15  2.00106E+02  2.58875E-05  1.0E-07
  5.500E-02  2.30367E-07  5.60347E-15  2.00104E+02  2.71204E-05  1.0E-07
  5.750E-02  2.51785E-07  5.60341E-15  2.00101E+02  2.83532E-05  1.0E-07
  6.000E-02  2.74156E-07  5.60333E-15  2.00099E+02  2.95861E-05  1.0E-07
  6.250E-02  2.97478E-07  5.60326E-15  2.00096E+02  3.08190E-05  1.0E-07
  6.500E-02  3.21752E-07  5.60318E-15  2.00093E+02  3.20519E-05  1.0E-07
  6.750E-02  3.46978E-07  5.60310E-15  2.00090E+02  3.32848E-05  1.0E-07
  7.000E-02  3.73156E-07  5.60302E-15  2.00087E+02  3.45177E-05  1.0E-07
  7.250E-02  4.00286E-07  5.60293E-15  2.00084E+02  3.57507E-05  1.0E-07
  7.500E-02  4.28368E-07  5.60284E-15  2.00081E+02  3.69836E-05  1.0E-07
  7.750E-02  4.57402E-07  5.60275E-15  2.00078E+02  3.82166E-05  1.0E-07
  8.000E-02  4.87388E-07  5.60265E-15  2.00074E+02  3.94496E-05  1.0E-07
  8.250E-02  5.18325E-07  5.60255E-15  2.00071E+02  4.06827E-05  1.0E-07
  8.500E-02  5.50215E-07  5.60245E-15  2.00067E+02  4.19157E-05  1.0E-07
  8.750E-02  5.83057E-07  5.60235E-15  2.00063E+02  4.31488E-05  1.0E-07
  9.000E-02  6.16850E-07  5.60224E-15  2.00060E+02  4.43819E-05  1.0E-07
  9.250E-02  6.51596E-07  5.60213E-15  2.00056E+02  4.56150E-05  1.0E-07
  9.500E-02  6.87293E-07  5.60201E-15  2.00051E+02  4.68481E-05  1.0E-07
  9.750E-02  7.23942E-07  5.60190E-15  2.00047E+02  4.80813E-05  1.0E-07
  1.000E-01  7.61543E-07  5.60178E-15  2.00043E+02  4.93144E-05  1.0E-07
  1.250E-01  1.18991E-06  5.60041E-15  1.99994E+02  6.16477E-05  1.0E-07
  1.500E-01  1.71347E-06  5.59874E-15  1.99934E+02  7.39841E-05  1.0E-07
  1.750E-01  2.33223E-06  5.59676E-15  1.99864E+02  8.63243E-05  1.0E-07
  2.000E-01  3.04617E-06  5.59449E-15  1.99783E+02  9.86688E-05  1.0E-07
  2.250E-01  3.85531E-06  5.59192E-15  1.99691E+02  1.11018E-04  1.0E-07
  2.500E-01  4.75964E-06  5.58905E-15  1.99589E+02  1.23373E-04  1.0E-07
  2.750E-01  5.75916E-06  5.58589E-15  1.99476E+02  1.35735E-04  1.0E-07
  3.000E-01  6.85388E-06  5.58243E-15  1.99352E+02  1.48103E-04  1.0E-07
  3.250E-01  8.04378E-06  5.57869E-15  1.99218E+02  1.60478E-04  1.0E-07
  3.500E-01  9.32888E-06  5.57465E-15  1.99074E+02  1.72861E-04  1.0E-07
  3.750E-01  1.07092E-05  5.57033E-15  1.98920E+02  1.85253E-04  1.0E-07
  4.000E-01  1.21846E-05  5.56572E-15  1.98755E+02  1.97654E-04  1.0E-07
  4.250E-01  1.37553E-05  5.56083E-15  1.98581E+02  2.10065E-04  1.0E-07
  4.500E-01  1.54212E-05  5.55566E-15  1.98396E+02  2.22485E-04  1.0E-07
  4.750E-01  1.71822E-05  5.55022E-15  1.98202E+02  2.34917E-04  1.0E-07
  5.000E-01  1.90385E-05  5.54451E-15  1.97998E+02  2.47360E-04  1.0E-07
  5.250E-01  2.09899E-05  5.53852E-15  1.97784E+02  2.59815E-04  1.0E-07
  5.500E-01  2.30365E-05  5.53228E-15  1.97561E+02  2.72282E-04  1.0E-07
  5.750E-01  2.51783E-05  5.52577E-15  1.97329E+02  2.84762E-04  1.0E-07
  6.000E-01  2.74153E-05  5.51900E-15  1.97087E+02  2.97256E-04  1.0E-07
  6.250E-01  2.97475E-05  5.51198E-15  1.96837E+02  3.09763E-04  1.0E-07
  6.500E-01  3.21749E-05  5.50471E-15  1.96577E+02  3.22285E-04  1.0E-07
  6.750E-01  3.46974E-05  5.49720E-15  1.96309E+02  3.34822E-04  1.0E-07
  7.000E-01  3.73152E-05  5.48945E-15  1.96032E+02  3.47374E-04  1.0E-07
  7.250E-01  4.00281E-05  5.48145E-15  1.95746E+02  3.59942E-04  1.0E-07
  7.500E-01  4.28362E-05  5.47323E-15  1.95453E+02  3.72526E-04  1.0E-07
  7.750E-01  4.57395E-05  5.46478E-15  1.95151E+02  3.85126E-04  1.0E-07
  8.000E-01  4.87380E-05  5.45610E-15  1.94841E+02  3.97744E-04  1.0E-07
  8.250E-01  5.18317E-05  5.44721E-15  1.94523E+02  4.10379E-04  1.0E-07
  8.500E-01  5.50205E-05  5.43811E-15  1.94198E+02  4.23032E-04  1.0E-07
  8.750E-01  5.83045E-05  5.42879E-15  1.93866E+02  4.35704E-04  1.0E-07
  9.000E-01  6.16838E-05  5.41927E-15  1.93526E+02  4.48394E-04  1.0E-07
  9.250E-01  6.51582E-05  5.40956E-15  1.93179E+02  4.61102E-04  1.0E-07
  9.500E-01  6.87277E-05  5.39965E-15  1.92825E+02  4.73831E-04  1.0E-07
  9.750E-01  7.23925E-05  5.38955E-15  1.92464E+02  4.86578E-04  1.0E-07
  1.000E+00  7.61524E-05  5.37928E-15  1.92097E+02  4.99346E-04  1.0E-07
  1.100E+00  9.21439E-05  5.33644E-15  1.90568E+02  5.50622E-04  1.0E-07
  1.200E+00  1.09658E-04  5.29110E-15  1.88949E+02  6.02237E-04  1.0E-07
  1.300E+00  1.28695E-04  5.24361E-15  1.87253E+02  6.54207E-04  1.0E-07
  1.400E+00  1.49255E-04  5.19430E-15  1.85492E+02  7.06540E-04  1.0E-07
  1.500E+00  1.71338E-04  5.14351E-15  1.83678E+02  7.59243E-04  1.0E-07
  1.600E+00  1.94942E-04  5.09155E-15  1.81823E+02  8.12321E-04  1.0E-07
  1.700E+00  2.20070E-04  5.03874E-15  1.79937E+02  8.65774E-04  1.0E-07
  1.800E+00  2.46720E-04  4.98535E-15  1.78030E+02  9.19601E-04  1.0E-07
  1.900E+00  2.74892E-04  4.93163E-15  1.76112E+02  9.73798E-04  1.0E-07
  2.000E+00  3.04586E-04  4.87784E-15  1.74191E+02  1.02836E-03  1.0E-07
  2.100E+00  3.35803E-04  4.82417E-15  1.72274E+02  1.08328E-03  1.0E-07
  2.200E+00  3.68542E-04  4.77080E-15  1.70368E+02  1.13855E-03  1.0E-07
  2.300E+00  4.02802E-04  4.71788E-15  1.68479E+02  1.19417E-03  1.0E-07
  2.400E+00  4.38585E-04  4.66554E-15  1.66609E+02  1.25012E-03  1.0E-07
  2.500E+00  4.75889E-04  4.61387E-15  1.64764E+02  1.30640E-03  1.0E-07
  2.600E+00  5.14715E-04  4.56294E-15  1.62946E+02  1.36300E-03  1.0E-07
  2.700E+00  5.55063E-04  4.51281E-15  1.61155E+02  1.41992E-03  1.0E-07
  2.800E+00  5.96931E-04  4.46349E-15  1.59394E+02  1.47714E-03  1.0E-07
  2.900E+00  6.40321E-04  4.41499E-15  1.57662E+02  1.53468E-03  1.0E-07
  3.000E+00  6.85233E-04  4.36730E-15  1.55959E+02  1.59251E-03  1.0E-07
  3.100E+00  7.31665E-04  4.32040E-15  1.54284E+02  1.65065E-03  1.0E-07
  3.200E+00  7.79618E-04  4.27425E-15  1.52636E+02  1.70910E-03  1.0E-07
  3.300E+00  8.29092E-04  4.22880E-15  1.51013E+02  1.76785E-03  1.0E-07
  3.400E+00  8.80086E-04  4.18401E-15  1.49414E+02  1.82691E-03  1.0E-07
  3.500E+00  9.32601E-04  4.13983E-15  1.47836E+02  1.88628E-03  1.0E-07
  3.600E+00  9.86636E-04  4.09619E-15  1.46277E+02  1.94597E-03  1.0E-07
  3.700E+00  1.04219E-03  4.05304E-15  1.44737E+02  2.00598E-03  1.0E-07
  3.800E+00  1.09927E-03  4.01033E-15  1.43211E+02  2.06632E-03  1.0E-07
  3.900E+00  1.15786E-03  3.96800E-15  1.41700E+02  2.12699E-03  1.0E-07
  4.000E+00  1.21797E-03  3.92603E-15  1.40201E+02  2.18800E-03  1.0E-07
  4.100E+00  1.27961E-03  3.88436E-15  1.38713E+02  2.24936E-03  1.0E-07
  4.200E+00  1.34276E-03  3.84297E-15  1.37235E+02  2.31106E-03  1.0E-07
  4.300E+00  1.40743E-03  3.80184E-15  1.35766E+02  2.37312E-03  1.0E-07
  4.400E+00  1.47362E-03  3.76095E-15  1.34306E+02  2.43555E-03  1.0E-07
  4.500E+00  1.54133E-03  3.72028E-15  1.32854E+02  2.49833E-03  1.0E-07
  4.600E+00  1.61056E-03  3.67983E-15  1.31409E+02  2.56148E-03  1.0E-07
  4.700E+00  1.68131E-03  3.63962E-15  1.29973E+02  2.62499E-03  1.0E-07
  4.800E+00  1.75357E-03  3.59963E-15  1.28545E+02  2.68887E-03  1.0E-07
  4.900E+00  1.82735E-03  3.55989E-15  1.27126E+02  2.75312E-03  1.0E-07
  5.000E+00  1.90265E-03  3.52042E-15  1.25716E+02  2.81774E-03  1.0E-07
  5.100E+00  1.97947E-03  3.48121E-15  1.24316E+02  2.88272E-03  1.0E-07
  5.200E+00  2.05780E-03  3.44231E-15  1.22927E+02  2.94806E-03  1.0E-07
  5.300E+00  2.13765E-03  3.40371E-15  1.21549E+02  3.01376E-03  1.0E-07
  5.400E+00  2.21902E-03  3.36545E-15  1.20182E+02  3.07982E-03  1.0E-07
  5.500E+00  2.30190E-03  3.32754E-15  1.18829E+02  3.14624E-03  1.0E-07
  5.600E+00  2.38630E-03  3.28999E-15  1.17488E+02  3.21301E-03  1.0E-07
  5.700E+00  2.47222E-03  3.25282E-15  1.16160E+02  3.28013E-03  1.0E-07
  5.800E+00  2.55965E-03  3.21603E-15  1.14847E+02  3.34760E-03  1.0E-07
  5.900E+00  2.64859E-03  3.17964E-15  1.13547E+02  3.41542E-03  1.0E-07
  6.000E+00  2.73905E-03  3.14365E-15  1.12262E+02  3.48359E-03  1.0E-07
  6.100E+00  2.83103E-03  3.10805E-15  1.10991E+02  3.55211E-03  1.0E-07
  6.200E+00  2.92452E-03  3.07285E-15  1.09733E+02  3.62097E-03  1.0E-07
  6.300E+00  3.01952E-03  3.03804E-15  1.08490E+02  3.69018E-03  1.0E-07
  6.400E+00  3.11604E-03  3.00361E-15  1.07261E+02  3.75975E-03  1.0E-07
  6.500E+00  3.21407E-03  2.96956E-15  1.06045E+02  3.82966E-03  1.0E-07
  6.600E+00  3.31362E-03  2.93586E-15  1.04842E+02  3.89993E-03  1.0E-07
  6.700E+00  3.41468E-03  2.90252E-15  1.03651E+02  3.97056E-03  1.0E-07
  6.800E+00  3.51725E-03  2.86951E-15  1.02472E+02  4.04155E-03  1.0E-07
  6.900E+00  3.62133E-03  2.83682E-15  1.01305E+02  4.11290E-03  1.0E-07
  7.000E+00  3.72692E-03  2.80444E-15  1.00148E+02  4.18461E-03  1.0E-07
  7.100E+00  3.83403E-03  2.77235E-15  9.90025E+01  4.25669E-03  1.0E-07
  7.200E+00  3.94265E-03  2.74055E-15  9.78669E+01  4.32915E-03  1.0E-07
  7.300E+00  4.05278E-03  2.70902E-15  9.67410E+01  4.40197E-03  1.0E-07
  7.400E+00  4.16442E-03  2.67776E-15  9.56245E+01  4.47517E-03  1.0E-07
  7.500E+00  4.27757E-03  2.64675E-15  9.45172E+01  4.54875E-03  1.0E-07
  7.600E+00  4.39223E-03  2.61600E-15  9.34189E+01  4.62270E-03  1.0E-07
  7.700E+00  4.50840E-03  2.58549E-15  9.23294E+01  4.69703E-03  1.0E-07
  7.800E+00  4.62608E-03  2.55522E-15  9.12487E+01  4.77174E-03  1.0E-07
  7.900E+00  4.74527E-03  2.52520E-15  9.01767E+01  4.84682E-03  1.0E-07
  8.000E+00  4.86597E-03  2.49543E-15  8.91135E+01  4.92228E-03  1.0E-07
  8.100E+00  4.98817E-03  2.46591E-15  8.80591E+01  4.99812E-03  1.0E-07
  8.200E+00  5.11188E-03  2.43663E-15  8.70138E+01  5.07433E-03  1.0E-07
  8.300E+00  5.23711E-03  2.40761E-15  8.59775E+01  5.15092E-03  1.0E-07
  8.400E+00  5.36383E-03  2.37886E-15  8.49505E+01  5.22787E-03  1.0E-07
  8.500E+00  5.49207E-03  2.35036E-15  8.39329E+01  5.30520E-03  1.0E-07
  8.600E+00  5.62181E-03  2.32213E-15  8.29248E+01  5.38290E-03  1.0E-07
  8.700E+00  5.75306E-03  2.29418E-15  8.19265E+01  5.46097E-03  1.0E-07
  8.800E+00  5.88581E-03  2.26650E-15  8.09380E+01  5.53940E-03  1.0E-07
  8.900E+00  6.02007E-03  2.23909E-15  7.99595E+01  5.61821E-03  1.0E-07
  9.000E+00  6.15583E-03  2.21197E-15  7.89909E+01  5.69738E-03  1.0E-07
  9.100E+00  6.29310E-03  2.18513E-15  7.80324E+01  5.77691E-03  1.0E-07
  9.200E+00  6.43187E-03  2.15857E-15  7.70839E+01  5.85682E-03  1.0E-07
  9.300E+00  6.57214E-03  2.13229E-15  7.61453E+01  5.93709E-03  1.0E-07
  9.400E+00  6.71392E-03  2.10628E-15  7.52167E+01  6.01772E-03  1.0E-07
  9.500E+00  6.85720E-03  2.08055E-15  7.42978E+01  6.09873E-03  1.0E-07
  9.600E+00  7.00198E-03  2.05509E-15  7.33886E+01  6.18010E-03  1.0E-07
  9.700E+00  7.14827E-03  2.02989E-15  7.24888E+01  6.26184E-03  1.0E-07
  9.800E+00  7.29605E-03  2.00496E-15  7.15984E+01  6.34395E-03  1.0E-07
  9.900E+00  7.44534E-03  1.98028E-15  7.07169E+01  6.42643E-03  1.0E-07
  1.000E+01  7.59612E-03  1.95584E-15  6.98444E+01  6.50927E-03  1.0E-07
  1.025E+01  7.97965E-03  1.89581E-15  6.77005E+01  6.71799E-03  1.0E-07
  1.050E+01  8.37255E-03  1.83720E-15  6.56077E+01  6.92897E-03  1.0E-07
  1.075E+01  8.77480E-03  1.77996E-15  6.35634E+01  7.14220E-03  1.0E-07
  1.100E+01  9.18641E-03  1.72403E-15  6.15662E+01  7.35762E-03  1.0E-07
  1.125E+01  9.60736E-03  1.66940E-15  5.96153E+01  7.57518E-03  1.0E-07
  1.150E+01  1.00376E-02  1.61607E-15  5.77108E+01  7.79482E-03  1.0E-07
  1.175E+01  1.04773E-02  1.56405E-15  5.58532E+01  8.01651E-03  1.0E-07
  1.200E+01  1.09262E-02  1.51335E-15  5.40429E+01  8.24020E-03  1.0E-07
  1.225E+01  1.13844E-02  1.46399E-15  5.22801E+01  8.46586E-03  1.0E-07
  1.250E+01  1.18520E-02  1.41596E-15  5.05647E+01  8.69346E-03  1.0E-07
  1.275E+01  1.23288E-02  1.36922E-15  4.88957E+01  8.92294E-03  1.0E-07
  1.300E+01  1.28150E-02  1.32374E-15  4.72718E+01  9.15423E-03  1.0E-07
  1.325E+01  1.33104E-02  1.27948E-15  4.56912E+01  9.38724E-03  1.0E-07
  1.350E+01  1.38150E-02  1.23639E-15  4.41522E+01  9.62184E-03  1.0E-07
  1.375E+01  1.43290E-02  1.19441E-15  4.26532E+01  9.85785E-03  1.0E-07
  1.400E+01  1.48521E-02  1.15352E-15  4.11928E+01  1.00951E-02  1.0E-07
  1.425E+01  1.53845E-02  1.11368E-15  3.97703E+01  1.03334E-02  1.0E-07
  1.450E+01  1.59262E-02  1.07489E-15  3.83851E+01  1.05726E-02  1.0E-07
