 #
 # Subroutine ELSEPA. Elastic scattering of electrons and positrons
 #                    by neutral atoms and positive ions
 #
 # Projectile: electron
 # Kinetic energy = 1.80000E+01 eV = 6.61488E-01 a.u.
 #
 #  ***  WARNING: Energy is too low.
 #                The reliability of the results is questionable.
 #
 # Element:  O,  Z =   8,  atomic weight = 1.59994E+01 g/mol
 #
 # Nuclear model: Fermi distribution
 #                Average radius = 2.69620E-13 cm
 #                Skin thickness = 5.46000E-14 cm
 #
 # Number of electrons =  8
 #
 # Electron density: analytical DHFS model
 #                   A1 =  6.25130D-02 ,   ALPHA1 = 1.48233D+01
 #                   A2 =  9.37487D-01 ,   ALPHA2 = 2.04035D+00
 #                   A3 =  0.00000D+00 ,   ALPHA3 = 1.00000D+00
 #                   Volume integral = 8.00000E+00
 #
 # Muffin-tin model: Rmt = 3.22000E-08 cm
 #
 # Furness-McCarthy exchange potential
 #
 # Total elastic cross section = 7.65965E-16 cm**2 = 2.73531E+01 a0**2
 # 1st transport cross section = 5.32906E-16 cm**2 = 1.90304E+01 a0**2
 # 2nd transport cross section = 5.62514E-16 cm**2 = 2.00878E+01 a0**2
 #
 #
 # Differential cross section:                       MU=(1-COS(THETA))/2
 #
 #  THETA        MU          DCS          DCS        Sherman      error
 #  (deg)                 (cm**2/sr)   (a0**2/sr)    function
 #----------------------------------------------------------------------
  0.000E+00  0.00000E+00  1.78335E-16  6.36846E+00  0.00000E+00  1.0E-07
  1.000E-04  7.61557E-13  1.78335E-16  6.36846E+00  6.17610E-10  1.0E-07
  1.250E-04  1.18994E-12  1.78335E-16  6.36846E+00  7.72013E-10  1.0E-07
  1.500E-04  1.71346E-12  1.78335E-16  6.36846E+00  9.26415E-10  1.0E-07
  1.750E-04  2.33225E-12  1.78335E-16  6.36846E+00  1.08082E-09  1.0E-07
  2.000E-04  3.04617E-12  1.78335E-16  6.36846E+00  1.23522E-09  1.0E-07
  2.250E-04  3.85530E-12  1.78335E-16  6.36846E+00  1.38962E-09  1.0E-07
  2.500E-04  4.75964E-12  1.78335E-16  6.36846E+00  1.54403E-09  1.0E-07
  2.750E-04  5.75917E-12  1.78335E-16  6.36846E+00  1.69843E-09  1.0E-07
  3.000E-04  6.85391E-12  1.78335E-16  6.36846E+00  1.85283E-09  1.0E-07
  3.250E-04  8.04379E-12  1.78335E-16  6.36846E+00  2.00723E-09  1.0E-07
  3.500E-04  9.32893E-12  1.78335E-16  6.36846E+00  2.16164E-09  1.0E-07
  3.750E-04  1.07092E-11  1.78335E-16  6.36846E+00  2.31604E-09  1.0E-07
  4.000E-04  1.21847E-11  1.78335E-16  6.36846E+00  2.47044E-09  1.0E-07
  4.250E-04  1.37554E-11  1.78335E-16  6.36846E+00  2.62484E-09  1.0E-07
  4.500E-04  1.54213E-11  1.78335E-16  6.36846E+00  2.77925E-09  1.0E-07
  4.750E-04  1.71823E-11  1.78335E-16  6.36846E+00  2.93365E-09  1.0E-07
  5.000E-04  1.90386E-11  1.78335E-16  6.36846E+00  3.08805E-09  1.0E-07
  5.250E-04  2.09900E-11  1.78335E-16  6.36846E+00  3.24245E-09  1.0E-07
  5.500E-04  2.30367E-11  1.78335E-16  6.36846E+00  3.39686E-09  1.0E-07
  5.750E-04  2.51785E-11  1.78335E-16  6.36846E+00  3.55126E-09  1.0E-07
  6.000E-04  2.74156E-11  1.78335E-16  6.36846E+00  3.70566E-09  1.0E-07
  6.250E-04  2.97478E-11  1.78335E-16  6.36846E+00  3.86006E-09  1.0E-07
  6.500E-04  3.21752E-11  1.78335E-16  6.36846E+00  4.01447E-09  1.0E-07
  6.750E-04  3.46979E-11  1.78335E-16  6.36846E+00  4.16887E-09  1.0E-07
  7.000E-04  3.73157E-11  1.78335E-16  6.36846E+00  4.32327E-09  1.0E-07
  7.250E-04  4.00286E-11  1.78335E-16  6.36846E+00  4.47767E-09  1.0E-07
  7.500E-04  4.28368E-11  1.78335E-16  6.36846E+00  4.63208E-09  1.0E-07
  7.750E-04  4.57402E-11  1.78335E-16  6.36846E+00  4.78648E-09  1.0E-07
  8.000E-04  4.87388E-11  1.78335E-16  6.36846E+00  4.94088E-09  1.0E-07
  8.250E-04  5.18325E-11  1.78335E-16  6.36846E+00  5.09528E-09  1.0E-07
  8.500E-04  5.50215E-11  1.78335E-16  6.36846E+00  5.24969E-09  1.0E-07
  8.750E-04  5.83057E-11  1.78335E-16  6.36846E+00  5.40409E-09  1.0E-07
  9.000E-04  6.16850E-11  1.78335E-16  6.36846E+00  5.55849E-09  1.0E-07
  9.250E-04  6.51595E-11  1.78335E-16  6.36846E+00  5.71289E-09  1.0E-07
  9.500E-04  6.87293E-11  1.78335E-16  6.36846E+00  5.86730E-09  1.0E-07
  9.750E-04  7.23943E-11  1.78335E-16  6.36846E+00  6.02170E-09  1.0E-07
  1.000E-03  7.61544E-11  1.78335E-16  6.36846E+00  6.17610E-09  1.0E-07
  1.250E-03  1.18991E-10  1.78335E-16  6.36846E+00  7.72013E-09  1.0E-07
  1.500E-03  1.71347E-10  1.78335E-16  6.36846E+00  9.26415E-09  1.0E-07
  1.750E-03  2.33223E-10  1.78335E-16  6.36846E+00  1.08082E-08  1.0E-07
  2.000E-03  3.04617E-10  1.78335E-16  6.36846E+00  1.23522E-08  1.0E-07
  2.250E-03  3.85531E-10  1.78335E-16  6.36846E+00  1.38962E-08  1.0E-07
  2.500E-03  4.75965E-10  1.78335E-16  6.36846E+00  1.54403E-08  1.0E-07
  2.750E-03  5.75917E-10  1.78335E-16  6.36846E+00  1.69843E-08  1.0E-07
  3.000E-03  6.85389E-10  1.78335E-16  6.36846E+00  1.85283E-08  1.0E-07
  3.250E-03  8.04380E-10  1.78335E-16  6.36846E+00  2.00723E-08  1.0E-07
  3.500E-03  9.32891E-10  1.78335E-16  6.36846E+00  2.16164E-08  1.0E-07
  3.750E-03  1.07092E-09  1.78335E-16  6.36846E+00  2.31604E-08  1.0E-07
  4.000E-03  1.21847E-09  1.78335E-16  6.36846E+00  2.47044E-08  1.0E-07
  4.250E-03  1.37554E-09  1.78335E-16  6.36846E+00  2.62484E-08  1.0E-07
  4.500E-03  1.54213E-09  1.78335E-16  6.36846E+00  2.77925E-08  1.0E-07
  4.750E-03  1.71823E-09  1.78335E-16  6.36846E+00  2.93365E-08  1.0E-07
  5.000E-03  1.90386E-09  1.78335E-16  6.36846E+00  3.08805E-08  1.0E-07
  5.250E-03  2.09900E-09  1.78335E-16  6.36846E+00  3.24245E-08  1.0E-07
  5.500E-03  2.30367E-09  1.78335E-16  6.36846E+00  3.39686E-08  1.0E-07
  5.750E-03  2.51785E-09  1.78335E-16  6.36846E+00  3.55126E-08  1.0E-07
  6.000E-03  2.74156E-09  1.78335E-16  6.36846E+00  3.70566E-08  1.0E-07
  6.250E-03  2.97478E-09  1.78335E-16  6.36846E+00  3.86006E-08  1.0E-07
  6.500E-03  3.21752E-09  1.78335E-16  6.36846E+00  4.01447E-08  1.0E-07
  6.750E-03  3.46978E-09  1.78335E-16  6.36846E+00  4.16887E-08  1.0E-07
  7.000E-03  3.73156E-09  1.78335E-16  6.36846E+00  4.32327E-08  1.0E-07
  7.250E-03  4.00286E-09  1.78335E-16  6.36846E+00  4.47767E-08  1.0E-07
  7.500E-03  4.28368E-09  1.78335E-16  6.36846E+00  4.63208E-08  1.0E-07
  7.750E-03  4.57402E-09  1.78335E-16  6.36846E+00  4.78648E-08  1.0E-07
  8.000E-03  4.87388E-09  1.78335E-16  6.36846E+00  4.94088E-08  1.0E-07
  8.250E-03  5.18326E-09  1.78335E-16  6.36846E+00  5.09528E-08  1.0E-07
  8.500E-03  5.50215E-09  1.78335E-16  6.36846E+00  5.24969E-08  1.0E-07
  8.750E-03  5.83057E-09  1.78335E-16  6.36846E+00  5.40409E-08  1.0E-07
  9.000E-03  6.16850E-09  1.78335E-16  6.36846E+00  5.55849E-08  1.0E-07
  9.250E-03  6.51596E-09  1.78335E-16  6.36846E+00  5.71289E-08  1.0E-07
  9.500E-03  6.87293E-09  1.78335E-16  6.36846E+00  5.86730E-08  1.0E-07
  9.750E-03  7.23942E-09  1.78335E-16  6.36846E+00  6.02170E-08  1.0E-07
  1.000E-02  7.61544E-09  1.78335E-16  6.36846E+00  6.17610E-08  1.0E-07
  1.250E-02  1.18991E-08  1.78335E-16  6.36846E+00  7.72013E-08  1.0E-07
  1.500E-02  1.71347E-08  1.78335E-16  6.36846E+00  9.26415E-08  1.0E-07
  1.750E-02  2.33223E-08  1.78335E-16  6.36846E+00  1.08082E-07  1.0E-07
  2.000E-02  3.04617E-08  1.78335E-16  6.36846E+00  1.23522E-07  1.0E-07
  2.250E-02  3.85531E-08  1.78335E-16  6.36846E+00  1.38962E-07  1.0E-07
  2.500E-02  4.75965E-08  1.78335E-16  6.36846E+00  1.54403E-07  1.0E-07
  2.750E-02  5.75917E-08  1.78335E-16  6.36846E+00  1.69843E-07  1.0E-07
  3.000E-02  6.85389E-08  1.78335E-16  6.36846E+00  1.85283E-07  1.0E-07
  3.250E-02  8.04380E-08  1.78335E-16  6.36846E+00  2.00723E-07  1.0E-07
  3.500E-02  9.32891E-08  1.78335E-16  6.36846E+00  2.16164E-07  1.0E-07
  3.750E-02  1.07092E-07  1.78335E-16  6.36846E+00  2.31604E-07  1.0E-07
  4.000E-02  1.21847E-07  1.78335E-16  6.36846E+00  2.47044E-07  1.0E-07
  4.250E-02  1.37554E-07  1.78335E-16  6.36846E+00  2.62485E-07  1.0E-07
  4.500E-02  1.54213E-07  1.78335E-16  6.36846E+00  2.77925E-07  1.0E-07
  4.750E-02  1.71823E-07  1.78335E-16  6.36846E+00  2.93365E-07  1.0E-07
  5.000E-02  1.90386E-07  1.78335E-16  6.36846E+00  3.08806E-07  1.0E-07
  5.250E-02  2.09900E-07  1.78335E-16  6.36846E+00  3.24246E-07  1.0E-07
  5.500E-02  2.30367E-07  1.78335E-16  6.36846E+00  3.39686E-07  1.0E-07
  5.750E-02  2.51785E-07  1.78335E-16  6.36846E+00  3.55127E-07  1.0E-07
  6.000E-02  2.74156E-07  1.78335E-16  6.36846E+00  3.70567E-07  1.0E-07
  6.250E-02  2.97478E-07  1.78335E-16  6.36846E+00  3.86007E-07  1.0E-07
  6.500E-02  3.21752E-07  1.78335E-16  6.36846E+00  4.01448E-07  1.0E-07
  6.750E-02  3.46978E-07  1.78335E-16  6.36846E+00  4.16888E-07  1.0E-07
  7.000E-02  3.73156E-07  1.78335E-16  6.36846E+00  4.32329E-07  1.0E-07
  7.250E-02  4.00286E-07  1.78335E-16  6.36846E+00  4.47769E-07  1.0E-07
  7.500E-02  4.28368E-07  1.78335E-16  6.36846E+00  4.63209E-07  1.0E-07
  7.750E-02  4.57402E-07  1.78335E-16  6.36846E+00  4.78650E-07  1.0E-07
  8.000E-02  4.87388E-07  1.78335E-16  6.36846E+00  4.94090E-07  1.0E-07
  8.250E-02  5.18325E-07  1.78335E-16  6.36846E+00  5.09531E-07  1.0E-07
  8.500E-02  5.50215E-07  1.78335E-16  6.36845E+00  5.24971E-07  1.0E-07
  8.750E-02  5.83057E-07  1.78335E-16  6.36845E+00  5.40412E-07  1.0E-07
  9.000E-02  6.16850E-07  1.78335E-16  6.36845E+00  5.55852E-07  1.0E-07
  9.250E-02  6.51596E-07  1.78335E-16  6.36845E+00  5.71293E-07  1.0E-07
  9.500E-02  6.87293E-07  1.78335E-16  6.36845E+00  5.86734E-07  1.0E-07
  9.750E-02  7.23942E-07  1.78335E-16  6.36845E+00  6.02174E-07  1.0E-07
  1.000E-01  7.61543E-07  1.78335E-16  6.36845E+00  6.17615E-07  1.0E-07
  1.250E-01  1.18991E-06  1.78335E-16  6.36844E+00  7.72022E-07  1.0E-07
  1.500E-01  1.71347E-06  1.78334E-16  6.36844E+00  9.26431E-07  1.0E-07
  1.750E-01  2.33223E-06  1.78334E-16  6.36843E+00  1.08084E-06  1.0E-07
  2.000E-01  3.04617E-06  1.78334E-16  6.36841E+00  1.23526E-06  1.0E-07
  2.250E-01  3.85531E-06  1.78333E-16  6.36840E+00  1.38968E-06  1.0E-07
  2.500E-01  4.75964E-06  1.78333E-16  6.36839E+00  1.54410E-06  1.0E-07
  2.750E-01  5.75916E-06  1.78333E-16  6.36837E+00  1.69852E-06  1.0E-07
  3.000E-01  6.85388E-06  1.78332E-16  6.36835E+00  1.85296E-06  1.0E-07
  3.250E-01  8.04378E-06  1.78332E-16  6.36833E+00  2.00739E-06  1.0E-07
  3.500E-01  9.32888E-06  1.78331E-16  6.36831E+00  2.16183E-06  1.0E-07
  3.750E-01  1.07092E-05  1.78330E-16  6.36829E+00  2.31628E-06  1.0E-07
  4.000E-01  1.21846E-05  1.78330E-16  6.36827E+00  2.47074E-06  1.0E-07
  4.250E-01  1.37553E-05  1.78329E-16  6.36824E+00  2.62520E-06  1.0E-07
  4.500E-01  1.54212E-05  1.78328E-16  6.36821E+00  2.77967E-06  1.0E-07
  4.750E-01  1.71822E-05  1.78327E-16  6.36819E+00  2.93415E-06  1.0E-07
  5.000E-01  1.90385E-05  1.78327E-16  6.36816E+00  3.08863E-06  1.0E-07
  5.250E-01  2.09899E-05  1.78326E-16  6.36812E+00  3.24313E-06  1.0E-07
  5.500E-01  2.30365E-05  1.78325E-16  6.36809E+00  3.39763E-06  1.0E-07
  5.750E-01  2.51783E-05  1.78324E-16  6.36806E+00  3.55214E-06  1.0E-07
  6.000E-01  2.74153E-05  1.78323E-16  6.36802E+00  3.70666E-06  1.0E-07
  6.250E-01  2.97475E-05  1.78322E-16  6.36798E+00  3.86120E-06  1.0E-07
  6.500E-01  3.21749E-05  1.78321E-16  6.36794E+00  4.01574E-06  1.0E-07
  6.750E-01  3.46974E-05  1.78319E-16  6.36790E+00  4.17030E-06  1.0E-07
  7.000E-01  3.73152E-05  1.78318E-16  6.36786E+00  4.32486E-06  1.0E-07
  7.250E-01  4.00281E-05  1.78317E-16  6.36782E+00  4.47944E-06  1.0E-07
  7.500E-01  4.28362E-05  1.78316E-16  6.36777E+00  4.63404E-06  1.0E-07
  7.750E-01  4.57395E-05  1.78314E-16  6.36772E+00  4.78864E-06  1.0E-07
  8.000E-01  4.87380E-05  1.78313E-16  6.36768E+00  4.94326E-06  1.0E-07
  8.250E-01  5.18317E-05  1.78312E-16  6.36763E+00  5.09789E-06  1.0E-07
  8.500E-01  5.50205E-05  1.78310E-16  6.36757E+00  5.25254E-06  1.0E-07
  8.750E-01  5.83045E-05  1.78309E-16  6.36752E+00  5.40720E-06  1.0E-07
  9.000E-01  6.16838E-05  1.78307E-16  6.36747E+00  5.56188E-06  1.0E-07
  9.250E-01  6.51582E-05  1.78306E-16  6.36741E+00  5.71657E-06  1.0E-07
  9.500E-01  6.87277E-05  1.78304E-16  6.36735E+00  5.87128E-06  1.0E-07
  9.750E-01  7.23925E-05  1.78302E-16  6.36729E+00  6.02600E-06  1.0E-07
  1.000E+00  7.61524E-05  1.78301E-16  6.36723E+00  6.18075E-06  1.0E-07
  1.100E+00  9.21439E-05  1.78293E-16  6.36697E+00  6.79989E-06  1.0E-07
  1.200E+00  1.09658E-04  1.78286E-16  6.36669E+00  7.41935E-06  1.0E-07
  1.300E+00  1.28695E-04  1.78277E-16  6.36638E+00  8.03914E-06  1.0E-07
  1.400E+00  1.49255E-04  1.78268E-16  6.36605E+00  8.65929E-06  1.0E-07
  1.500E+00  1.71338E-04  1.78258E-16  6.36570E+00  9.27983E-06  1.0E-07
  1.600E+00  1.94942E-04  1.78247E-16  6.36531E+00  9.90079E-06  1.0E-07
  1.700E+00  2.20070E-04  1.78236E-16  6.36491E+00  1.05222E-05  1.0E-07
  1.800E+00  2.46720E-04  1.78224E-16  6.36448E+00  1.11441E-05  1.0E-07
  1.900E+00  2.74892E-04  1.78211E-16  6.36402E+00  1.17665E-05  1.0E-07
  2.000E+00  3.04586E-04  1.78197E-16  6.36354E+00  1.23894E-05  1.0E-07
  2.100E+00  3.35803E-04  1.78183E-16  6.36304E+00  1.30128E-05  1.0E-07
  2.200E+00  3.68542E-04  1.78168E-16  6.36251E+00  1.36369E-05  1.0E-07
  2.300E+00  4.02802E-04  1.78153E-16  6.36196E+00  1.42615E-05  1.0E-07
  2.400E+00  4.38585E-04  1.78137E-16  6.36138E+00  1.48868E-05  1.0E-07
  2.500E+00  4.75889E-04  1.78120E-16  6.36078E+00  1.55128E-05  1.0E-07
  2.600E+00  5.14715E-04  1.78102E-16  6.36015E+00  1.61395E-05  1.0E-07
  2.700E+00  5.55063E-04  1.78084E-16  6.35950E+00  1.67669E-05  1.0E-07
  2.800E+00  5.96931E-04  1.78065E-16  6.35883E+00  1.73950E-05  1.0E-07
  2.900E+00  6.40321E-04  1.78046E-16  6.35813E+00  1.80239E-05  1.0E-07
  3.000E+00  6.85233E-04  1.78025E-16  6.35740E+00  1.86536E-05  1.0E-07
  3.100E+00  7.31665E-04  1.78004E-16  6.35665E+00  1.92842E-05  1.0E-07
  3.200E+00  7.79618E-04  1.77983E-16  6.35588E+00  1.99156E-05  1.0E-07
  3.300E+00  8.29092E-04  1.77961E-16  6.35508E+00  2.05479E-05  1.0E-07
  3.400E+00  8.80086E-04  1.77938E-16  6.35426E+00  2.11811E-05  1.0E-07
  3.500E+00  9.32601E-04  1.77914E-16  6.35342E+00  2.18153E-05  1.0E-07
  3.600E+00  9.86636E-04  1.77889E-16  6.35255E+00  2.24504E-05  1.0E-07
  3.700E+00  1.04219E-03  1.77864E-16  6.35165E+00  2.30866E-05  1.0E-07
  3.800E+00  1.09927E-03  1.77839E-16  6.35073E+00  2.37237E-05  1.0E-07
  3.900E+00  1.15786E-03  1.77812E-16  6.34979E+00  2.43620E-05  1.0E-07
  4.000E+00  1.21797E-03  1.77785E-16  6.34883E+00  2.50012E-05  1.0E-07
  4.100E+00  1.27961E-03  1.77757E-16  6.34783E+00  2.56417E-05  1.0E-07
  4.200E+00  1.34276E-03  1.77729E-16  6.34682E+00  2.62832E-05  1.0E-07
  4.300E+00  1.40743E-03  1.77700E-16  6.34578E+00  2.69259E-05  1.0E-07
  4.400E+00  1.47362E-03  1.77670E-16  6.34472E+00  2.75698E-05  1.0E-07
  4.500E+00  1.54133E-03  1.77640E-16  6.34363E+00  2.82149E-05  1.0E-07
  4.600E+00  1.61056E-03  1.77609E-16  6.34252E+00  2.88613E-05  1.0E-07
  4.700E+00  1.68131E-03  1.77577E-16  6.34138E+00  2.95089E-05  1.0E-07
  4.800E+00  1.75357E-03  1.77544E-16  6.34022E+00  3.01578E-05  1.0E-07
  4.900E+00  1.82735E-03  1.77511E-16  6.33904E+00  3.08081E-05  1.0E-07
  5.000E+00  1.90265E-03  1.77477E-16  6.33783E+00  3.14597E-05  1.0E-07
  5.100E+00  1.97947E-03  1.77443E-16  6.33660E+00  3.21127E-05  1.0E-07
  5.200E+00  2.05780E-03  1.77408E-16  6.33534E+00  3.27671E-05  1.0E-07
  5.300E+00  2.13765E-03  1.77372E-16  6.33406E+00  3.34229E-05  1.0E-07
  5.400E+00  2.21902E-03  1.77335E-16  6.33276E+00  3.40802E-05  1.0E-07
  5.500E+00  2.30190E-03  1.77298E-16  6.33143E+00  3.47390E-05  1.0E-07
  5.600E+00  2.38630E-03  1.77260E-16  6.33008E+00  3.53992E-05  1.0E-07
  5.700E+00  2.47222E-03  1.77222E-16  6.32870E+00  3.60611E-05  1.0E-07
  5.800E+00  2.55965E-03  1.77183E-16  6.32730E+00  3.67245E-05  1.0E-07
  5.900E+00  2.64859E-03  1.77143E-16  6.32588E+00  3.73895E-05  1.0E-07
  6.000E+00  2.73905E-03  1.77102E-16  6.32443E+00  3.80561E-05  1.0E-07
  6.100E+00  2.83103E-03  1.77061E-16  6.32296E+00  3.87244E-05  1.0E-07
  6.200E+00  2.92452E-03  1.77019E-16  6.32147E+00  3.93943E-05  1.0E-07
  6.300E+00  3.01952E-03  1.76977E-16  6.31995E+00  4.00660E-05  1.0E-07
  6.400E+00  3.11604E-03  1.76934E-16  6.31841E+00  4.07394E-05  1.0E-07
  6.500E+00  3.21407E-03  1.76890E-16  6.31685E+00  4.14145E-05  1.0E-07
  6.600E+00  3.31362E-03  1.76845E-16  6.31526E+00  4.20915E-05  1.0E-07
  6.700E+00  3.41468E-03  1.76800E-16  6.31365E+00  4.27702E-05  1.0E-07
  6.800E+00  3.51725E-03  1.76754E-16  6.31201E+00  4.34507E-05  1.0E-07
  6.900E+00  3.62133E-03  1.76708E-16  6.31035E+00  4.41332E-05  1.0E-07
  7.000E+00  3.72692E-03  1.76661E-16  6.30867E+00  4.48175E-05  1.0E-07
  7.100E+00  3.83403E-03  1.76613E-16  6.30697E+00  4.55037E-05  1.0E-07
  7.200E+00  3.94265E-03  1.76565E-16  6.30524E+00  4.61919E-05  1.0E-07
  7.300E+00  4.05278E-03  1.76516E-16  6.30348E+00  4.68820E-05  1.0E-07
  7.400E+00  4.16442E-03  1.76466E-16  6.30171E+00  4.75742E-05  1.0E-07
  7.500E+00  4.27757E-03  1.76415E-16  6.29991E+00  4.82683E-05  1.0E-07
  7.600E+00  4.39223E-03  1.76364E-16  6.29809E+00  4.89645E-05  1.0E-07
  7.700E+00  4.50840E-03  1.76313E-16  6.29624E+00  4.96628E-05  1.0E-07
  7.800E+00  4.62608E-03  1.76260E-16  6.29438E+00  5.03632E-05  1.0E-07
  7.900E+00  4.74527E-03  1.76208E-16  6.29249E+00  5.10657E-05  1.0E-07
  8.000E+00  4.86597E-03  1.76154E-16  6.29057E+00  5.17703E-05  1.0E-07
  8.100E+00  4.98817E-03  1.76100E-16  6.28863E+00  5.24771E-05  1.0E-07
  8.200E+00  5.11188E-03  1.76045E-16  6.28667E+00  5.31861E-05  1.0E-07
  8.300E+00  5.23711E-03  1.75989E-16  6.28469E+00  5.38974E-05  1.0E-07
  8.400E+00  5.36383E-03  1.75933E-16  6.28269E+00  5.46109E-05  1.0E-07
  8.500E+00  5.49207E-03  1.75876E-16  6.28066E+00  5.53266E-05  1.0E-07
  8.600E+00  5.62181E-03  1.75819E-16  6.27860E+00  5.60447E-05  1.0E-07
  8.700E+00  5.75306E-03  1.75761E-16  6.27653E+00  5.67651E-05  1.0E-07
  8.800E+00  5.88581E-03  1.75702E-16  6.27443E+00  5.74879E-05  1.0E-07
  8.900E+00  6.02007E-03  1.75643E-16  6.27231E+00  5.82130E-05  1.0E-07
  9.000E+00  6.15583E-03  1.75583E-16  6.27017E+00  5.89406E-05  1.0E-07
  9.100E+00  6.29310E-03  1.75522E-16  6.26801E+00  5.96705E-05  1.0E-07
  9.200E+00  6.43187E-03  1.75461E-16  6.26582E+00  6.04030E-05  1.0E-07
  9.300E+00  6.57214E-03  1.75399E-16  6.26361E+00  6.11379E-05  1.0E-07
  9.400E+00  6.71392E-03  1.75336E-16  6.26138E+00  6.18753E-05  1.0E-07
  9.500E+00  6.85720E-03  1.75273E-16  6.25912E+00  6.26153E-05  1.0E-07
  9.600E+00  7.00198E-03  1.75209E-16  6.25684E+00  6.33578E-05  1.0E-07
  9.700E+00  7.14827E-03  1.75145E-16  6.25454E+00  6.41028E-05  1.0E-07
  9.800E+00  7.29605E-03  1.75080E-16  6.25222E+00  6.48505E-05  1.0E-07
  9.900E+00  7.44534E-03  1.75014E-16  6.24988E+00  6.56009E-05  1.0E-07
  1.000E+01  7.59612E-03  1.74948E-16  6.24751E+00  6.63538E-05  1.0E-07
  1.025E+01  7.97965E-03  1.74780E-16  6.24150E+00  6.82481E-05  1.0E-07
  1.050E+01  8.37255E-03  1.74608E-16  6.23535E+00  7.01594E-05  1.0E-07
  1.075E+01  8.77480E-03  1.74431E-16  6.22906E+00  7.20883E-05  1.0E-07
  1.100E+01  9.18641E-03  1.74252E-16  6.22263E+00  7.40350E-05  1.0E-07
  1.125E+01  9.60736E-03  1.74068E-16  6.21607E+00  7.60001E-05  1.0E-07
  1.150E+01  1.00376E-02  1.73880E-16  6.20938E+00  7.79837E-05  1.0E-07
  1.175E+01  1.04773E-02  1.73689E-16  6.20255E+00  7.99864E-05  1.0E-07
  1.200E+01  1.09262E-02  1.73494E-16  6.19559E+00  8.20085E-05  1.0E-07
  1.225E+01  1.13844E-02  1.73295E-16  6.18849E+00  8.40503E-05  1.0E-07
  1.250E+01  1.18520E-02  1.73093E-16  6.18127E+00  8.61122E-05  1.0E-07
  1.275E+01  1.23288E-02  1.72887E-16  6.17391E+00  8.81946E-05  1.0E-07
  1.300E+01  1.28150E-02  1.72677E-16  6.16642E+00  9.02977E-05  1.0E-07
  1.325E+01  1.33104E-02  1.72464E-16  6.15880E+00  9.24221E-05  1.0E-07
  1.350E+01  1.38150E-02  1.72247E-16  6.15106E+00  9.45680E-05  1.0E-07
  1.375E+01  1.43290E-02  1.72027E-16  6.14318E+00  9.67357E-05  1.0E-07
  1.400E+01  1.48521E-02  1.71803E-16  6.13518E+00  9.89256E-05  1.0E-07
  1.425E+01  1.53845E-02  1.71575E-16  6.12705E+00  1.01138E-04  1.0E-07
  1.450E+01  1.59262E-02  1.71344E-16  6.11880E+00  1.03373E-04  1.0E-07
