 #
 # Subroutine ELSEPA. Elastic scattering of electrons and positrons
 #                    by neutral atoms and positive ions
 #
 # Projectile: electron
 # Kinetic energy = 1.00000E+02 eV = 3.67493E+00 a.u.
 #
 # Element:  O,  Z =   8,  atomic weight = 1.59994E+01 g/mol
 #
 # Nuclear model: Fermi distribution
 #                Average radius = 2.69620E-13 cm
 #                Skin thickness = 5.46000E-14 cm
 #
 # Number of electrons =  8
 #
 # Electron density: analytical DHFS model
 #                   A1 =  6.25130D-02 ,   ALPHA1 = 1.48233D+01
 #                   A2 =  9.37487D-01 ,   ALPHA2 = 2.04035D+00
 #                   A3 =  0.00000D+00 ,   ALPHA3 = 1.00000D+00
 #                   Volume integral = 8.00000E+00
 #
 # Muffin-tin model: Rmt = 3.22000E-08 cm
 #
 # Furness-McCarthy exchange potential
 #
 # Total elastic cross section = 2.39264E-16 cm**2 = 8.54428E+00 a0**2
 # 1st transport cross section = 1.53285E-16 cm**2 = 5.47389E+00 a0**2
 # 2nd transport cross section = 1.24539E-16 cm**2 = 4.44735E+00 a0**2
 #
 #
 # Differential cross section:                       MU=(1-COS(THETA))/2
 #
 #  THETA        MU          DCS          DCS        Sherman      error
 #  (deg)                 (cm**2/sr)   (a0**2/sr)    function
 #----------------------------------------------------------------------
  0.000E+00  0.00000E+00  1.94498E-16  6.94567E+00  0.00000E+00  1.0E-07
  1.000E-04  7.61557E-13  1.94498E-16  6.94567E+00  2.92097E-10  1.0E-07
  1.250E-04  1.18994E-12  1.94498E-16  6.94567E+00  3.65121E-10  1.0E-07
  1.500E-04  1.71346E-12  1.94498E-16  6.94567E+00  4.38145E-10  1.0E-07
  1.750E-04  2.33225E-12  1.94498E-16  6.94567E+00  5.11170E-10  1.0E-07
  2.000E-04  3.04617E-12  1.94498E-16  6.94567E+00  5.84194E-10  1.0E-07
  2.250E-04  3.85530E-12  1.94498E-16  6.94567E+00  6.57218E-10  1.0E-07
  2.500E-04  4.75964E-12  1.94498E-16  6.94567E+00  7.30242E-10  1.0E-07
  2.750E-04  5.75917E-12  1.94498E-16  6.94567E+00  8.03267E-10  1.0E-07
  3.000E-04  6.85391E-12  1.94498E-16  6.94567E+00  8.76291E-10  1.0E-07
  3.250E-04  8.04379E-12  1.94498E-16  6.94567E+00  9.49315E-10  1.0E-07
  3.500E-04  9.32893E-12  1.94498E-16  6.94567E+00  1.02234E-09  1.0E-07
  3.750E-04  1.07092E-11  1.94498E-16  6.94567E+00  1.09536E-09  1.0E-07
  4.000E-04  1.21847E-11  1.94498E-16  6.94567E+00  1.16839E-09  1.0E-07
  4.250E-04  1.37554E-11  1.94498E-16  6.94567E+00  1.24141E-09  1.0E-07
  4.500E-04  1.54213E-11  1.94498E-16  6.94567E+00  1.31444E-09  1.0E-07
  4.750E-04  1.71823E-11  1.94498E-16  6.94567E+00  1.38746E-09  1.0E-07
  5.000E-04  1.90386E-11  1.94498E-16  6.94567E+00  1.46048E-09  1.0E-07
  5.250E-04  2.09900E-11  1.94498E-16  6.94567E+00  1.53351E-09  1.0E-07
  5.500E-04  2.30367E-11  1.94498E-16  6.94567E+00  1.60653E-09  1.0E-07
  5.750E-04  2.51785E-11  1.94498E-16  6.94567E+00  1.67956E-09  1.0E-07
  6.000E-04  2.74156E-11  1.94498E-16  6.94567E+00  1.75258E-09  1.0E-07
  6.250E-04  2.97478E-11  1.94498E-16  6.94567E+00  1.82561E-09  1.0E-07
  6.500E-04  3.21752E-11  1.94498E-16  6.94567E+00  1.89863E-09  1.0E-07
  6.750E-04  3.46979E-11  1.94498E-16  6.94567E+00  1.97165E-09  1.0E-07
  7.000E-04  3.73157E-11  1.94498E-16  6.94567E+00  2.04468E-09  1.0E-07
  7.250E-04  4.00286E-11  1.94498E-16  6.94567E+00  2.11770E-09  1.0E-07
  7.500E-04  4.28368E-11  1.94498E-16  6.94567E+00  2.19073E-09  1.0E-07
  7.750E-04  4.57402E-11  1.94498E-16  6.94567E+00  2.26375E-09  1.0E-07
  8.000E-04  4.87388E-11  1.94498E-16  6.94567E+00  2.33678E-09  1.0E-07
  8.250E-04  5.18325E-11  1.94498E-16  6.94567E+00  2.40980E-09  1.0E-07
  8.500E-04  5.50215E-11  1.94498E-16  6.94567E+00  2.48282E-09  1.0E-07
  8.750E-04  5.83057E-11  1.94498E-16  6.94567E+00  2.55585E-09  1.0E-07
  9.000E-04  6.16850E-11  1.94498E-16  6.94567E+00  2.62887E-09  1.0E-07
  9.250E-04  6.51595E-11  1.94498E-16  6.94567E+00  2.70190E-09  1.0E-07
  9.500E-04  6.87293E-11  1.94498E-16  6.94567E+00  2.77492E-09  1.0E-07
  9.750E-04  7.23943E-11  1.94498E-16  6.94567E+00  2.84794E-09  1.0E-07
  1.000E-03  7.61544E-11  1.94498E-16  6.94567E+00  2.92097E-09  1.0E-07
  1.250E-03  1.18991E-10  1.94498E-16  6.94567E+00  3.65121E-09  1.0E-07
  1.500E-03  1.71347E-10  1.94498E-16  6.94567E+00  4.38145E-09  1.0E-07
  1.750E-03  2.33223E-10  1.94498E-16  6.94567E+00  5.11170E-09  1.0E-07
  2.000E-03  3.04617E-10  1.94498E-16  6.94567E+00  5.84194E-09  1.0E-07
  2.250E-03  3.85531E-10  1.94498E-16  6.94567E+00  6.57218E-09  1.0E-07
  2.500E-03  4.75965E-10  1.94498E-16  6.94567E+00  7.30242E-09  1.0E-07
  2.750E-03  5.75917E-10  1.94498E-16  6.94567E+00  8.03267E-09  1.0E-07
  3.000E-03  6.85389E-10  1.94498E-16  6.94567E+00  8.76291E-09  1.0E-07
  3.250E-03  8.04380E-10  1.94498E-16  6.94567E+00  9.49315E-09  1.0E-07
  3.500E-03  9.32891E-10  1.94498E-16  6.94567E+00  1.02234E-08  1.0E-07
  3.750E-03  1.07092E-09  1.94498E-16  6.94567E+00  1.09536E-08  1.0E-07
  4.000E-03  1.21847E-09  1.94498E-16  6.94567E+00  1.16839E-08  1.0E-07
  4.250E-03  1.37554E-09  1.94498E-16  6.94567E+00  1.24141E-08  1.0E-07
  4.500E-03  1.54213E-09  1.94498E-16  6.94567E+00  1.31444E-08  1.0E-07
  4.750E-03  1.71823E-09  1.94498E-16  6.94567E+00  1.38746E-08  1.0E-07
  5.000E-03  1.90386E-09  1.94498E-16  6.94567E+00  1.46048E-08  1.0E-07
  5.250E-03  2.09900E-09  1.94498E-16  6.94567E+00  1.53351E-08  1.0E-07
  5.500E-03  2.30367E-09  1.94498E-16  6.94567E+00  1.60653E-08  1.0E-07
  5.750E-03  2.51785E-09  1.94498E-16  6.94567E+00  1.67956E-08  1.0E-07
  6.000E-03  2.74156E-09  1.94498E-16  6.94567E+00  1.75258E-08  1.0E-07
  6.250E-03  2.97478E-09  1.94498E-16  6.94567E+00  1.82561E-08  1.0E-07
  6.500E-03  3.21752E-09  1.94498E-16  6.94567E+00  1.89863E-08  1.0E-07
  6.750E-03  3.46978E-09  1.94498E-16  6.94567E+00  1.97165E-08  1.0E-07
  7.000E-03  3.73156E-09  1.94498E-16  6.94567E+00  2.04468E-08  1.0E-07
  7.250E-03  4.00286E-09  1.94498E-16  6.94567E+00  2.11770E-08  1.0E-07
  7.500E-03  4.28368E-09  1.94498E-16  6.94567E+00  2.19073E-08  1.0E-07
  7.750E-03  4.57402E-09  1.94498E-16  6.94567E+00  2.26375E-08  1.0E-07
  8.000E-03  4.87388E-09  1.94498E-16  6.94567E+00  2.33678E-08  1.0E-07
  8.250E-03  5.18326E-09  1.94498E-16  6.94567E+00  2.40980E-08  1.0E-07
  8.500E-03  5.50215E-09  1.94498E-16  6.94567E+00  2.48282E-08  1.0E-07
  8.750E-03  5.83057E-09  1.94498E-16  6.94567E+00  2.55585E-08  1.0E-07
  9.000E-03  6.16850E-09  1.94498E-16  6.94567E+00  2.62887E-08  1.0E-07
  9.250E-03  6.51596E-09  1.94498E-16  6.94567E+00  2.70190E-08  1.0E-07
  9.500E-03  6.87293E-09  1.94498E-16  6.94567E+00  2.77492E-08  1.0E-07
  9.750E-03  7.23942E-09  1.94498E-16  6.94567E+00  2.84795E-08  1.0E-07
  1.000E-02  7.61544E-09  1.94498E-16  6.94567E+00  2.92097E-08  1.0E-07
  1.250E-02  1.18991E-08  1.94498E-16  6.94566E+00  3.65121E-08  1.0E-07
  1.500E-02  1.71347E-08  1.94498E-16  6.94566E+00  4.38146E-08  1.0E-07
  1.750E-02  2.33223E-08  1.94498E-16  6.94566E+00  5.11170E-08  1.0E-07
  2.000E-02  3.04617E-08  1.94498E-16  6.94566E+00  5.84194E-08  1.0E-07
  2.250E-02  3.85531E-08  1.94498E-16  6.94566E+00  6.57219E-08  1.0E-07
  2.500E-02  4.75965E-08  1.94498E-16  6.94566E+00  7.30243E-08  1.0E-07
  2.750E-02  5.75917E-08  1.94498E-16  6.94566E+00  8.03268E-08  1.0E-07
  3.000E-02  6.85389E-08  1.94498E-16  6.94566E+00  8.76292E-08  1.0E-07
  3.250E-02  8.04380E-08  1.94498E-16  6.94566E+00  9.49317E-08  1.0E-07
  3.500E-02  9.32891E-08  1.94498E-16  6.94565E+00  1.02234E-07  1.0E-07
  3.750E-02  1.07092E-07  1.94498E-16  6.94565E+00  1.09537E-07  1.0E-07
  4.000E-02  1.21847E-07  1.94498E-16  6.94565E+00  1.16839E-07  1.0E-07
  4.250E-02  1.37554E-07  1.94498E-16  6.94565E+00  1.24142E-07  1.0E-07
  4.500E-02  1.54213E-07  1.94498E-16  6.94564E+00  1.31444E-07  1.0E-07
  4.750E-02  1.71823E-07  1.94498E-16  6.94564E+00  1.38747E-07  1.0E-07
  5.000E-02  1.90386E-07  1.94498E-16  6.94564E+00  1.46049E-07  1.0E-07
  5.250E-02  2.09900E-07  1.94498E-16  6.94564E+00  1.53352E-07  1.0E-07
  5.500E-02  2.30367E-07  1.94498E-16  6.94563E+00  1.60654E-07  1.0E-07
  5.750E-02  2.51785E-07  1.94497E-16  6.94563E+00  1.67957E-07  1.0E-07
  6.000E-02  2.74156E-07  1.94497E-16  6.94563E+00  1.75259E-07  1.0E-07
  6.250E-02  2.97478E-07  1.94497E-16  6.94562E+00  1.82562E-07  1.0E-07
  6.500E-02  3.21752E-07  1.94497E-16  6.94562E+00  1.89864E-07  1.0E-07
  6.750E-02  3.46978E-07  1.94497E-16  6.94562E+00  1.97167E-07  1.0E-07
  7.000E-02  3.73156E-07  1.94497E-16  6.94561E+00  2.04470E-07  1.0E-07
  7.250E-02  4.00286E-07  1.94497E-16  6.94561E+00  2.11772E-07  1.0E-07
  7.500E-02  4.28368E-07  1.94497E-16  6.94561E+00  2.19075E-07  1.0E-07
  7.750E-02  4.57402E-07  1.94497E-16  6.94560E+00  2.26378E-07  1.0E-07
  8.000E-02  4.87388E-07  1.94497E-16  6.94560E+00  2.33680E-07  1.0E-07
  8.250E-02  5.18325E-07  1.94496E-16  6.94559E+00  2.40983E-07  1.0E-07
  8.500E-02  5.50215E-07  1.94496E-16  6.94559E+00  2.48286E-07  1.0E-07
  8.750E-02  5.83057E-07  1.94496E-16  6.94558E+00  2.55588E-07  1.0E-07
  9.000E-02  6.16850E-07  1.94496E-16  6.94558E+00  2.62891E-07  1.0E-07
  9.250E-02  6.51596E-07  1.94496E-16  6.94557E+00  2.70194E-07  1.0E-07
  9.500E-02  6.87293E-07  1.94496E-16  6.94557E+00  2.77497E-07  1.0E-07
  9.750E-02  7.23942E-07  1.94496E-16  6.94556E+00  2.84799E-07  1.0E-07
  1.000E-01  7.61543E-07  1.94495E-16  6.94556E+00  2.92102E-07  1.0E-07
  1.250E-01  1.18991E-06  1.94494E-16  6.94550E+00  3.65131E-07  1.0E-07
  1.500E-01  1.71347E-06  1.94492E-16  6.94542E+00  4.38163E-07  1.0E-07
  1.750E-01  2.33223E-06  1.94489E-16  6.94533E+00  5.11198E-07  1.0E-07
  2.000E-01  3.04617E-06  1.94486E-16  6.94523E+00  5.84236E-07  1.0E-07
  2.250E-01  3.85531E-06  1.94483E-16  6.94512E+00  6.57278E-07  1.0E-07
  2.500E-01  4.75964E-06  1.94479E-16  6.94499E+00  7.30325E-07  1.0E-07
  2.750E-01  5.75916E-06  1.94475E-16  6.94484E+00  8.03377E-07  1.0E-07
  3.000E-01  6.85388E-06  1.94471E-16  6.94469E+00  8.76434E-07  1.0E-07
  3.250E-01  8.04378E-06  1.94466E-16  6.94452E+00  9.49497E-07  1.0E-07
  3.500E-01  9.32888E-06  1.94461E-16  6.94433E+00  1.02257E-06  1.0E-07
  3.750E-01  1.07092E-05  1.94456E-16  6.94413E+00  1.09564E-06  1.0E-07
  4.000E-01  1.21846E-05  1.94450E-16  6.94392E+00  1.16873E-06  1.0E-07
  4.250E-01  1.37553E-05  1.94443E-16  6.94370E+00  1.24182E-06  1.0E-07
  4.500E-01  1.54212E-05  1.94437E-16  6.94346E+00  1.31492E-06  1.0E-07
  4.750E-01  1.71822E-05  1.94430E-16  6.94321E+00  1.38803E-06  1.0E-07
  5.000E-01  1.90385E-05  1.94422E-16  6.94294E+00  1.46115E-06  1.0E-07
  5.250E-01  2.09899E-05  1.94414E-16  6.94266E+00  1.53427E-06  1.0E-07
  5.500E-01  2.30365E-05  1.94406E-16  6.94237E+00  1.60741E-06  1.0E-07
  5.750E-01  2.51783E-05  1.94398E-16  6.94207E+00  1.68056E-06  1.0E-07
  6.000E-01  2.74153E-05  1.94389E-16  6.94175E+00  1.75373E-06  1.0E-07
  6.250E-01  2.97475E-05  1.94379E-16  6.94141E+00  1.82690E-06  1.0E-07
  6.500E-01  3.21749E-05  1.94370E-16  6.94107E+00  1.90008E-06  1.0E-07
  6.750E-01  3.46974E-05  1.94360E-16  6.94070E+00  1.97328E-06  1.0E-07
  7.000E-01  3.73152E-05  1.94349E-16  6.94033E+00  2.04649E-06  1.0E-07
  7.250E-01  4.00281E-05  1.94338E-16  6.93994E+00  2.11972E-06  1.0E-07
  7.500E-01  4.28362E-05  1.94327E-16  6.93954E+00  2.19296E-06  1.0E-07
  7.750E-01  4.57395E-05  1.94315E-16  6.93913E+00  2.26622E-06  1.0E-07
  8.000E-01  4.87380E-05  1.94303E-16  6.93870E+00  2.33949E-06  1.0E-07
  8.250E-01  5.18317E-05  1.94291E-16  6.93826E+00  2.41277E-06  1.0E-07
  8.500E-01  5.50205E-05  1.94278E-16  6.93780E+00  2.48608E-06  1.0E-07
  8.750E-01  5.83045E-05  1.94265E-16  6.93733E+00  2.55940E-06  1.0E-07
  9.000E-01  6.16838E-05  1.94252E-16  6.93685E+00  2.63273E-06  1.0E-07
  9.250E-01  6.51582E-05  1.94238E-16  6.93635E+00  2.70609E-06  1.0E-07
  9.500E-01  6.87277E-05  1.94223E-16  6.93584E+00  2.77946E-06  1.0E-07
  9.750E-01  7.23925E-05  1.94209E-16  6.93532E+00  2.85285E-06  1.0E-07
  1.000E+00  7.61524E-05  1.94194E-16  6.93478E+00  2.92627E-06  1.0E-07
  1.100E+00  9.21439E-05  1.94130E-16  6.93250E+00  3.22012E-06  1.0E-07
  1.200E+00  1.09658E-04  1.94060E-16  6.93000E+00  3.51432E-06  1.0E-07
  1.300E+00  1.28695E-04  1.93984E-16  6.92728E+00  3.80890E-06  1.0E-07
  1.400E+00  1.49255E-04  1.93902E-16  6.92435E+00  4.10390E-06  1.0E-07
  1.500E+00  1.71338E-04  1.93814E-16  6.92121E+00  4.39934E-06  1.0E-07
  1.600E+00  1.94942E-04  1.93719E-16  6.91785E+00  4.69526E-06  1.0E-07
  1.700E+00  2.20070E-04  1.93619E-16  6.91427E+00  4.99169E-06  1.0E-07
  1.800E+00  2.46720E-04  1.93513E-16  6.91048E+00  5.28866E-06  1.0E-07
  1.900E+00  2.74892E-04  1.93401E-16  6.90648E+00  5.58621E-06  1.0E-07
  2.000E+00  3.04586E-04  1.93283E-16  6.90226E+00  5.88437E-06  1.0E-07
  2.100E+00  3.35803E-04  1.93159E-16  6.89783E+00  6.18316E-06  1.0E-07
  2.200E+00  3.68542E-04  1.93029E-16  6.89319E+00  6.48263E-06  1.0E-07
  2.300E+00  4.02802E-04  1.92893E-16  6.88834E+00  6.78280E-06  1.0E-07
  2.400E+00  4.38585E-04  1.92751E-16  6.88327E+00  7.08371E-06  1.0E-07
  2.500E+00  4.75889E-04  1.92604E-16  6.87800E+00  7.38538E-06  1.0E-07
  2.600E+00  5.14715E-04  1.92450E-16  6.87252E+00  7.68786E-06  1.0E-07
  2.700E+00  5.55063E-04  1.92291E-16  6.86682E+00  7.99117E-06  1.0E-07
  2.800E+00  5.96931E-04  1.92125E-16  6.86092E+00  8.29535E-06  1.0E-07
  2.900E+00  6.40321E-04  1.91954E-16  6.85481E+00  8.60043E-06  1.0E-07
  3.000E+00  6.85233E-04  1.91777E-16  6.84850E+00  8.90645E-06  1.0E-07
  3.100E+00  7.31665E-04  1.91595E-16  6.84198E+00  9.21343E-06  1.0E-07
  3.200E+00  7.79618E-04  1.91406E-16  6.83525E+00  9.52141E-06  1.0E-07
  3.300E+00  8.29092E-04  1.91212E-16  6.82832E+00  9.83042E-06  1.0E-07
  3.400E+00  8.80086E-04  1.91013E-16  6.82118E+00  1.01405E-05  1.0E-07
  3.500E+00  9.32601E-04  1.90807E-16  6.81384E+00  1.04517E-05  1.0E-07
  3.600E+00  9.86636E-04  1.90596E-16  6.80630E+00  1.07640E-05  1.0E-07
  3.700E+00  1.04219E-03  1.90379E-16  6.79856E+00  1.10775E-05  1.0E-07
  3.800E+00  1.09927E-03  1.90157E-16  6.79062E+00  1.13921E-05  1.0E-07
  3.900E+00  1.15786E-03  1.89929E-16  6.78248E+00  1.17081E-05  1.0E-07
  4.000E+00  1.21797E-03  1.89695E-16  6.77414E+00  1.20252E-05  1.0E-07
  4.100E+00  1.27961E-03  1.89456E-16  6.76561E+00  1.23437E-05  1.0E-07
  4.200E+00  1.34276E-03  1.89212E-16  6.75688E+00  1.26635E-05  1.0E-07
  4.300E+00  1.40743E-03  1.88962E-16  6.74795E+00  1.29847E-05  1.0E-07
  4.400E+00  1.47362E-03  1.88706E-16  6.73883E+00  1.33073E-05  1.0E-07
  4.500E+00  1.54133E-03  1.88446E-16  6.72951E+00  1.36314E-05  1.0E-07
  4.600E+00  1.61056E-03  1.88179E-16  6.72001E+00  1.39569E-05  1.0E-07
  4.700E+00  1.68131E-03  1.87908E-16  6.71031E+00  1.42839E-05  1.0E-07
  4.800E+00  1.75357E-03  1.87631E-16  6.70042E+00  1.46125E-05  1.0E-07
  4.900E+00  1.82735E-03  1.87349E-16  6.69035E+00  1.49426E-05  1.0E-07
  5.000E+00  1.90265E-03  1.87061E-16  6.68008E+00  1.52744E-05  1.0E-07
  5.100E+00  1.97947E-03  1.86769E-16  6.66963E+00  1.56078E-05  1.0E-07
  5.200E+00  2.05780E-03  1.86471E-16  6.65900E+00  1.59429E-05  1.0E-07
  5.300E+00  2.13765E-03  1.86168E-16  6.64818E+00  1.62797E-05  1.0E-07
  5.400E+00  2.21902E-03  1.85860E-16  6.63718E+00  1.66183E-05  1.0E-07
  5.500E+00  2.30190E-03  1.85547E-16  6.62600E+00  1.69587E-05  1.0E-07
  5.600E+00  2.38630E-03  1.85229E-16  6.61464E+00  1.73009E-05  1.0E-07
  5.700E+00  2.47222E-03  1.84906E-16  6.60310E+00  1.76450E-05  1.0E-07
  5.800E+00  2.55965E-03  1.84577E-16  6.59138E+00  1.79909E-05  1.0E-07
  5.900E+00  2.64859E-03  1.84244E-16  6.57949E+00  1.83389E-05  1.0E-07
  6.000E+00  2.73905E-03  1.83906E-16  6.56742E+00  1.86887E-05  1.0E-07
  6.100E+00  2.83103E-03  1.83564E-16  6.55518E+00  1.90406E-05  1.0E-07
  6.200E+00  2.92452E-03  1.83216E-16  6.54277E+00  1.93946E-05  1.0E-07
  6.300E+00  3.01952E-03  1.82864E-16  6.53018E+00  1.97507E-05  1.0E-07
  6.400E+00  3.11604E-03  1.82507E-16  6.51743E+00  2.01088E-05  1.0E-07
  6.500E+00  3.21407E-03  1.82145E-16  6.50451E+00  2.04692E-05  1.0E-07
  6.600E+00  3.31362E-03  1.81778E-16  6.49142E+00  2.08317E-05  1.0E-07
  6.700E+00  3.41468E-03  1.81407E-16  6.47817E+00  2.11965E-05  1.0E-07
  6.800E+00  3.51725E-03  1.81032E-16  6.46476E+00  2.15635E-05  1.0E-07
  6.900E+00  3.62133E-03  1.80652E-16  6.45118E+00  2.19329E-05  1.0E-07
  7.000E+00  3.72692E-03  1.80267E-16  6.43745E+00  2.23046E-05  1.0E-07
  7.100E+00  3.83403E-03  1.79878E-16  6.42356E+00  2.26787E-05  1.0E-07
  7.200E+00  3.94265E-03  1.79484E-16  6.40950E+00  2.30553E-05  1.0E-07
  7.300E+00  4.05278E-03  1.79087E-16  6.39530E+00  2.34343E-05  1.0E-07
  7.400E+00  4.16442E-03  1.78684E-16  6.38094E+00  2.38159E-05  1.0E-07
  7.500E+00  4.27757E-03  1.78278E-16  6.36642E+00  2.42000E-05  1.0E-07
  7.600E+00  4.39223E-03  1.77867E-16  6.35176E+00  2.45867E-05  1.0E-07
  7.700E+00  4.50840E-03  1.77453E-16  6.33695E+00  2.49760E-05  1.0E-07
  7.800E+00  4.62608E-03  1.77034E-16  6.32199E+00  2.53680E-05  1.0E-07
  7.900E+00  4.74527E-03  1.76611E-16  6.30688E+00  2.57627E-05  1.0E-07
  8.000E+00  4.86597E-03  1.76184E-16  6.29163E+00  2.61601E-05  1.0E-07
  8.100E+00  4.98817E-03  1.75753E-16  6.27624E+00  2.65604E-05  1.0E-07
  8.200E+00  5.11188E-03  1.75318E-16  6.26070E+00  2.69635E-05  1.0E-07
  8.300E+00  5.23711E-03  1.74879E-16  6.24503E+00  2.73695E-05  1.0E-07
  8.400E+00  5.36383E-03  1.74436E-16  6.22922E+00  2.77784E-05  1.0E-07
  8.500E+00  5.49207E-03  1.73989E-16  6.21327E+00  2.81902E-05  1.0E-07
  8.600E+00  5.62181E-03  1.73539E-16  6.19719E+00  2.86051E-05  1.0E-07
  8.700E+00  5.75306E-03  1.73085E-16  6.18097E+00  2.90230E-05  1.0E-07
  8.800E+00  5.88581E-03  1.72627E-16  6.16463E+00  2.94440E-05  1.0E-07
  8.900E+00  6.02007E-03  1.72166E-16  6.14815E+00  2.98681E-05  1.0E-07
  9.000E+00  6.15583E-03  1.71701E-16  6.13155E+00  3.02954E-05  1.0E-07
  9.100E+00  6.29310E-03  1.71232E-16  6.11482E+00  3.07260E-05  1.0E-07
  9.200E+00  6.43187E-03  1.70761E-16  6.09797E+00  3.11598E-05  1.0E-07
  9.300E+00  6.57214E-03  1.70285E-16  6.08099E+00  3.15969E-05  1.0E-07
  9.400E+00  6.71392E-03  1.69806E-16  6.06390E+00  3.20374E-05  1.0E-07
  9.500E+00  6.85720E-03  1.69324E-16  6.04669E+00  3.24812E-05  1.0E-07
  9.600E+00  7.00198E-03  1.68839E-16  6.02935E+00  3.29285E-05  1.0E-07
  9.700E+00  7.14827E-03  1.68351E-16  6.01191E+00  3.33793E-05  1.0E-07
  9.800E+00  7.29605E-03  1.67859E-16  5.99435E+00  3.38336E-05  1.0E-07
  9.900E+00  7.44534E-03  1.67364E-16  5.97668E+00  3.42915E-05  1.0E-07
  1.000E+01  7.59612E-03  1.66866E-16  5.95889E+00  3.47531E-05  1.0E-07
  1.025E+01  7.97965E-03  1.65608E-16  5.91397E+00  3.59231E-05  1.0E-07
  1.050E+01  8.37255E-03  1.64332E-16  5.86840E+00  3.71167E-05  1.0E-07
  1.075E+01  8.77480E-03  1.63038E-16  5.82220E+00  3.83348E-05  1.0E-07
  1.100E+01  9.18641E-03  1.61728E-16  5.77541E+00  3.95781E-05  1.0E-07
  1.125E+01  9.60736E-03  1.60402E-16  5.72806E+00  4.08473E-05  1.0E-07
  1.150E+01  1.00376E-02  1.59061E-16  5.68017E+00  4.21432E-05  1.0E-07
  1.175E+01  1.04773E-02  1.57706E-16  5.63177E+00  4.34667E-05  1.0E-07
  1.200E+01  1.09262E-02  1.56337E-16  5.58289E+00  4.48185E-05  1.0E-07
  1.225E+01  1.13844E-02  1.54955E-16  5.53355E+00  4.61993E-05  1.0E-07
  1.250E+01  1.18520E-02  1.53562E-16  5.48379E+00  4.76102E-05  1.0E-07
  1.275E+01  1.23288E-02  1.52157E-16  5.43363E+00  4.90518E-05  1.0E-07
  1.300E+01  1.28150E-02  1.50742E-16  5.38310E+00  5.05251E-05  1.0E-07
  1.325E+01  1.33104E-02  1.49318E-16  5.33222E+00  5.20309E-05  1.0E-07
  1.350E+01  1.38150E-02  1.47884E-16  5.28103E+00  5.35702E-05  1.0E-07
  1.375E+01  1.43290E-02  1.46442E-16  5.22955E+00  5.51437E-05  1.0E-07
  1.400E+01  1.48521E-02  1.44993E-16  5.17780E+00  5.67524E-05  1.0E-07
  1.425E+01  1.53845E-02  1.43537E-16  5.12581E+00  5.83972E-05  1.0E-07
  1.450E+01  1.59262E-02  1.42075E-16  5.07361E+00  6.00791E-05  1.0E-07
  1.475E+01  1.64770E-02  1.40608E-16  5.02122E+00  6.17990E-05  1.0E-07
