 #
 # Subroutine ELSEPA. Elastic scattering of electrons and positrons
 #                    by neutral atoms and positive ions
 #
 # Projectile: electron
 # Kinetic energy = 9.00000E+03 eV = 3.30744E+02 a.u.
 #
 # Element:  O,  Z =   8,  atomic weight = 1.59994E+01 g/mol
 #
 # Nuclear model: Fermi distribution
 #                Average radius = 2.69620E-13 cm
 #                Skin thickness = 5.46000E-14 cm
 #
 # Number of electrons =  8
 #
 # Electron density: analytical DHFS model
 #                   A1 =  6.25130D-02 ,   ALPHA1 = 1.48233D+01
 #                   A2 =  9.37487D-01 ,   ALPHA2 = 2.04035D+00
 #                   A3 =  0.00000D+00 ,   ALPHA3 = 1.00000D+00
 #                   Volume integral = 8.00000E+00
 #
 # Muffin-tin model: Rmt = 3.22000E-08 cm
 #
 # Furness-McCarthy exchange potential
 #
 # Total elastic cross section = 7.20065E-18 cm**2 = 2.57140E-01 a0**2
 # 1st transport cross section = 1.36091E-19 cm**2 = 4.85991E-03 a0**2
 # 2nd transport cross section = 3.29091E-19 cm**2 = 1.17521E-02 a0**2
 #
 #
 # Differential cross section:                       MU=(1-COS(THETA))/2
 #
 #  THETA        MU          DCS          DCS        Sherman      error
 #  (deg)                 (cm**2/sr)   (a0**2/sr)    function
 #----------------------------------------------------------------------
  0.000E+00  0.00000E+00  3.66502E-16  1.30880E+01  0.00000E+00  1.0E-07
  1.000E-04  7.61557E-13  3.66502E-16  1.30880E+01  1.08696E-10  1.0E-07
  1.250E-04  1.18994E-12  3.66502E-16  1.30880E+01  1.35870E-10  1.0E-07
  1.500E-04  1.71346E-12  3.66502E-16  1.30880E+01  1.63045E-10  1.0E-07
  1.750E-04  2.33225E-12  3.66502E-16  1.30880E+01  1.90219E-10  1.0E-07
  2.000E-04  3.04617E-12  3.66502E-16  1.30880E+01  2.17393E-10  1.0E-07
  2.250E-04  3.85530E-12  3.66502E-16  1.30880E+01  2.44567E-10  1.0E-07
  2.500E-04  4.75964E-12  3.66502E-16  1.30880E+01  2.71741E-10  1.0E-07
  2.750E-04  5.75917E-12  3.66502E-16  1.30880E+01  2.98915E-10  1.0E-07
  3.000E-04  6.85391E-12  3.66502E-16  1.30880E+01  3.26089E-10  1.0E-07
  3.250E-04  8.04379E-12  3.66502E-16  1.30880E+01  3.53263E-10  1.0E-07
  3.500E-04  9.32893E-12  3.66502E-16  1.30880E+01  3.80437E-10  1.0E-07
  3.750E-04  1.07092E-11  3.66502E-16  1.30880E+01  4.07611E-10  1.0E-07
  4.000E-04  1.21847E-11  3.66502E-16  1.30880E+01  4.34786E-10  1.0E-07
  4.250E-04  1.37554E-11  3.66502E-16  1.30880E+01  4.61960E-10  1.0E-07
  4.500E-04  1.54213E-11  3.66502E-16  1.30880E+01  4.89134E-10  1.0E-07
  4.750E-04  1.71823E-11  3.66502E-16  1.30880E+01  5.16308E-10  1.0E-07
  5.000E-04  1.90386E-11  3.66502E-16  1.30880E+01  5.43482E-10  1.0E-07
  5.250E-04  2.09900E-11  3.66502E-16  1.30880E+01  5.70656E-10  1.0E-07
  5.500E-04  2.30367E-11  3.66502E-16  1.30880E+01  5.97830E-10  1.0E-07
  5.750E-04  2.51785E-11  3.66502E-16  1.30880E+01  6.25004E-10  1.0E-07
  6.000E-04  2.74156E-11  3.66502E-16  1.30880E+01  6.52178E-10  1.0E-07
  6.250E-04  2.97478E-11  3.66502E-16  1.30880E+01  6.79352E-10  1.0E-07
  6.500E-04  3.21752E-11  3.66502E-16  1.30880E+01  7.06527E-10  1.0E-07
  6.750E-04  3.46979E-11  3.66502E-16  1.30880E+01  7.33701E-10  1.0E-07
  7.000E-04  3.73157E-11  3.66502E-16  1.30880E+01  7.60875E-10  1.0E-07
  7.250E-04  4.00286E-11  3.66502E-16  1.30880E+01  7.88049E-10  1.0E-07
  7.500E-04  4.28368E-11  3.66502E-16  1.30880E+01  8.15223E-10  1.0E-07
  7.750E-04  4.57402E-11  3.66502E-16  1.30880E+01  8.42397E-10  1.0E-07
  8.000E-04  4.87388E-11  3.66502E-16  1.30880E+01  8.69571E-10  1.0E-07
  8.250E-04  5.18325E-11  3.66502E-16  1.30880E+01  8.96745E-10  1.0E-07
  8.500E-04  5.50215E-11  3.66502E-16  1.30880E+01  9.23919E-10  1.0E-07
  8.750E-04  5.83057E-11  3.66502E-16  1.30880E+01  9.51093E-10  1.0E-07
  9.000E-04  6.16850E-11  3.66502E-16  1.30880E+01  9.78268E-10  1.0E-07
  9.250E-04  6.51595E-11  3.66502E-16  1.30880E+01  1.00544E-09  1.0E-07
  9.500E-04  6.87293E-11  3.66502E-16  1.30880E+01  1.03262E-09  1.0E-07
  9.750E-04  7.23943E-11  3.66502E-16  1.30880E+01  1.05979E-09  1.0E-07
  1.000E-03  7.61544E-11  3.66502E-16  1.30880E+01  1.08696E-09  1.0E-07
  1.250E-03  1.18991E-10  3.66502E-16  1.30880E+01  1.35870E-09  1.0E-07
  1.500E-03  1.71347E-10  3.66502E-16  1.30880E+01  1.63045E-09  1.0E-07
  1.750E-03  2.33223E-10  3.66502E-16  1.30880E+01  1.90219E-09  1.0E-07
  2.000E-03  3.04617E-10  3.66502E-16  1.30880E+01  2.17393E-09  1.0E-07
  2.250E-03  3.85531E-10  3.66502E-16  1.30880E+01  2.44567E-09  1.0E-07
  2.500E-03  4.75965E-10  3.66502E-16  1.30880E+01  2.71741E-09  1.0E-07
  2.750E-03  5.75917E-10  3.66501E-16  1.30880E+01  2.98915E-09  1.0E-07
  3.000E-03  6.85389E-10  3.66501E-16  1.30880E+01  3.26089E-09  1.0E-07
  3.250E-03  8.04380E-10  3.66501E-16  1.30880E+01  3.53263E-09  1.0E-07
  3.500E-03  9.32891E-10  3.66501E-16  1.30880E+01  3.80438E-09  1.0E-07
  3.750E-03  1.07092E-09  3.66501E-16  1.30880E+01  4.07612E-09  1.0E-07
  4.000E-03  1.21847E-09  3.66501E-16  1.30880E+01  4.34786E-09  1.0E-07
  4.250E-03  1.37554E-09  3.66501E-16  1.30880E+01  4.61960E-09  1.0E-07
  4.500E-03  1.54213E-09  3.66501E-16  1.30880E+01  4.89134E-09  1.0E-07
  4.750E-03  1.71823E-09  3.66501E-16  1.30880E+01  5.16308E-09  1.0E-07
  5.000E-03  1.90386E-09  3.66501E-16  1.30880E+01  5.43482E-09  1.0E-07
  5.250E-03  2.09900E-09  3.66501E-16  1.30880E+01  5.70657E-09  1.0E-07
  5.500E-03  2.30367E-09  3.66501E-16  1.30880E+01  5.97831E-09  1.0E-07
  5.750E-03  2.51785E-09  3.66501E-16  1.30880E+01  6.25005E-09  1.0E-07
  6.000E-03  2.74156E-09  3.66500E-16  1.30880E+01  6.52179E-09  1.0E-07
  6.250E-03  2.97478E-09  3.66500E-16  1.30880E+01  6.79353E-09  1.0E-07
  6.500E-03  3.21752E-09  3.66500E-16  1.30880E+01  7.06527E-09  1.0E-07
  6.750E-03  3.46978E-09  3.66500E-16  1.30880E+01  7.33702E-09  1.0E-07
  7.000E-03  3.73156E-09  3.66500E-16  1.30880E+01  7.60876E-09  1.0E-07
  7.250E-03  4.00286E-09  3.66500E-16  1.30879E+01  7.88050E-09  1.0E-07
  7.500E-03  4.28368E-09  3.66500E-16  1.30879E+01  8.15224E-09  1.0E-07
  7.750E-03  4.57402E-09  3.66500E-16  1.30879E+01  8.42399E-09  1.0E-07
  8.000E-03  4.87388E-09  3.66499E-16  1.30879E+01  8.69573E-09  1.0E-07
  8.250E-03  5.18326E-09  3.66499E-16  1.30879E+01  8.96747E-09  1.0E-07
  8.500E-03  5.50215E-09  3.66499E-16  1.30879E+01  9.23921E-09  1.0E-07
  8.750E-03  5.83057E-09  3.66499E-16  1.30879E+01  9.51096E-09  1.0E-07
  9.000E-03  6.16850E-09  3.66499E-16  1.30879E+01  9.78270E-09  1.0E-07
  9.250E-03  6.51596E-09  3.66499E-16  1.30879E+01  1.00544E-08  1.0E-07
  9.500E-03  6.87293E-09  3.66498E-16  1.30879E+01  1.03262E-08  1.0E-07
  9.750E-03  7.23942E-09  3.66498E-16  1.30879E+01  1.05979E-08  1.0E-07
  1.000E-02  7.61544E-09  3.66498E-16  1.30879E+01  1.08697E-08  1.0E-07
  1.250E-02  1.18991E-08  3.66496E-16  1.30878E+01  1.35871E-08  1.0E-07
  1.500E-02  1.71347E-08  3.66494E-16  1.30877E+01  1.63046E-08  1.0E-07
  1.750E-02  2.33223E-08  3.66491E-16  1.30876E+01  1.90221E-08  1.0E-07
  2.000E-02  3.04617E-08  3.66487E-16  1.30875E+01  2.17396E-08  1.0E-07
  2.250E-02  3.85531E-08  3.66484E-16  1.30874E+01  2.44571E-08  1.0E-07
  2.500E-02  4.75965E-08  3.66479E-16  1.30872E+01  2.71746E-08  1.0E-07
  2.750E-02  5.75917E-08  3.66475E-16  1.30870E+01  2.98922E-08  1.0E-07
  3.000E-02  6.85389E-08  3.66469E-16  1.30869E+01  3.26099E-08  1.0E-07
  3.250E-02  8.04380E-08  3.66464E-16  1.30867E+01  3.53275E-08  1.0E-07
  3.500E-02  9.32891E-08  3.66458E-16  1.30864E+01  3.80452E-08  1.0E-07
  3.750E-02  1.07092E-07  3.66451E-16  1.30862E+01  4.07630E-08  1.0E-07
  4.000E-02  1.21847E-07  3.66444E-16  1.30860E+01  4.34808E-08  1.0E-07
  4.250E-02  1.37554E-07  3.66437E-16  1.30857E+01  4.61987E-08  1.0E-07
  4.500E-02  1.54213E-07  3.66429E-16  1.30854E+01  4.89166E-08  1.0E-07
  4.750E-02  1.71823E-07  3.66421E-16  1.30851E+01  5.16345E-08  1.0E-07
  5.000E-02  1.90386E-07  3.66412E-16  1.30848E+01  5.43526E-08  1.0E-07
  5.250E-02  2.09900E-07  3.66403E-16  1.30845E+01  5.70707E-08  1.0E-07
  5.500E-02  2.30367E-07  3.66393E-16  1.30841E+01  5.97888E-08  1.0E-07
  5.750E-02  2.51785E-07  3.66383E-16  1.30838E+01  6.25071E-08  1.0E-07
  6.000E-02  2.74156E-07  3.66373E-16  1.30834E+01  6.52254E-08  1.0E-07
  6.250E-02  2.97478E-07  3.66362E-16  1.30830E+01  6.79438E-08  1.0E-07
  6.500E-02  3.21752E-07  3.66350E-16  1.30826E+01  7.06623E-08  1.0E-07
  6.750E-02  3.46978E-07  3.66338E-16  1.30822E+01  7.33808E-08  1.0E-07
  7.000E-02  3.73156E-07  3.66326E-16  1.30817E+01  7.60995E-08  1.0E-07
  7.250E-02  4.00286E-07  3.66313E-16  1.30813E+01  7.88182E-08  1.0E-07
  7.500E-02  4.28368E-07  3.66300E-16  1.30808E+01  8.15371E-08  1.0E-07
  7.750E-02  4.57402E-07  3.66286E-16  1.30803E+01  8.42560E-08  1.0E-07
  8.000E-02  4.87388E-07  3.66272E-16  1.30798E+01  8.69751E-08  1.0E-07
  8.250E-02  5.18325E-07  3.66258E-16  1.30793E+01  8.96942E-08  1.0E-07
  8.500E-02  5.50215E-07  3.66243E-16  1.30788E+01  9.24135E-08  1.0E-07
  8.750E-02  5.83057E-07  3.66227E-16  1.30782E+01  9.51328E-08  1.0E-07
  9.000E-02  6.16850E-07  3.66211E-16  1.30776E+01  9.78523E-08  1.0E-07
  9.250E-02  6.51596E-07  3.66195E-16  1.30771E+01  1.00572E-07  1.0E-07
  9.500E-02  6.87293E-07  3.66178E-16  1.30765E+01  1.03292E-07  1.0E-07
  9.750E-02  7.23942E-07  3.66161E-16  1.30758E+01  1.06011E-07  1.0E-07
  1.000E-01  7.61543E-07  3.66143E-16  1.30752E+01  1.08731E-07  1.0E-07
  1.250E-01  1.18991E-06  3.65942E-16  1.30680E+01  1.35939E-07  1.0E-07
  1.500E-01  1.71347E-06  3.65696E-16  1.30592E+01  1.63163E-07  1.0E-07
  1.750E-01  2.33223E-06  3.65406E-16  1.30489E+01  1.90406E-07  1.0E-07
  2.000E-01  3.04617E-06  3.65071E-16  1.30369E+01  2.17673E-07  1.0E-07
  2.250E-01  3.85531E-06  3.64693E-16  1.30234E+01  2.44966E-07  1.0E-07
  2.500E-01  4.75964E-06  3.64270E-16  1.30083E+01  2.72288E-07  1.0E-07
  2.750E-01  5.75916E-06  3.63804E-16  1.29917E+01  2.99643E-07  1.0E-07
  3.000E-01  6.85388E-06  3.63295E-16  1.29735E+01  3.27034E-07  1.0E-07
  3.250E-01  8.04378E-06  3.62742E-16  1.29538E+01  3.54464E-07  1.0E-07
  3.500E-01  9.32888E-06  3.62147E-16  1.29325E+01  3.81937E-07  1.0E-07
  3.750E-01  1.07092E-05  3.61509E-16  1.29097E+01  4.09455E-07  1.0E-07
  4.000E-01  1.21846E-05  3.60829E-16  1.28854E+01  4.37023E-07  1.0E-07
  4.250E-01  1.37553E-05  3.60107E-16  1.28596E+01  4.64642E-07  1.0E-07
  4.500E-01  1.54212E-05  3.59343E-16  1.28324E+01  4.92316E-07  1.0E-07
  4.750E-01  1.71822E-05  3.58539E-16  1.28037E+01  5.20049E-07  1.0E-07
  5.000E-01  1.90385E-05  3.57694E-16  1.27735E+01  5.47844E-07  1.0E-07
  5.250E-01  2.09899E-05  3.56809E-16  1.27419E+01  5.75703E-07  1.0E-07
  5.500E-01  2.30365E-05  3.55884E-16  1.27088E+01  6.03630E-07  1.0E-07
  5.750E-01  2.51783E-05  3.54920E-16  1.26744E+01  6.31628E-07  1.0E-07
  6.000E-01  2.74153E-05  3.53917E-16  1.26386E+01  6.59700E-07  1.0E-07
  6.250E-01  2.97475E-05  3.52875E-16  1.26014E+01  6.87849E-07  1.0E-07
  6.500E-01  3.21749E-05  3.51796E-16  1.25629E+01  7.16079E-07  1.0E-07
  6.750E-01  3.46974E-05  3.50680E-16  1.25230E+01  7.44391E-07  1.0E-07
  7.000E-01  3.73152E-05  3.49528E-16  1.24819E+01  7.72790E-07  1.0E-07
  7.250E-01  4.00281E-05  3.48339E-16  1.24394E+01  8.01278E-07  1.0E-07
  7.500E-01  4.28362E-05  3.47115E-16  1.23957E+01  8.29859E-07  1.0E-07
  7.750E-01  4.57395E-05  3.45856E-16  1.23507E+01  8.58534E-07  1.0E-07
  8.000E-01  4.87380E-05  3.44562E-16  1.23045E+01  8.87308E-07  1.0E-07
  8.250E-01  5.18317E-05  3.43235E-16  1.22572E+01  9.16182E-07  1.0E-07
  8.500E-01  5.50205E-05  3.41875E-16  1.22086E+01  9.45161E-07  1.0E-07
  8.750E-01  5.83045E-05  3.40483E-16  1.21589E+01  9.74246E-07  1.0E-07
  9.000E-01  6.16838E-05  3.39059E-16  1.21080E+01  1.00344E-06  1.0E-07
  9.250E-01  6.51582E-05  3.37604E-16  1.20561E+01  1.03275E-06  1.0E-07
  9.500E-01  6.87277E-05  3.36119E-16  1.20030E+01  1.06217E-06  1.0E-07
  9.750E-01  7.23925E-05  3.34604E-16  1.19489E+01  1.09171E-06  1.0E-07
  1.000E+00  7.61524E-05  3.33061E-16  1.18938E+01  1.12137E-06  1.0E-07
  1.100E+00  9.21439E-05  3.26611E-16  1.16635E+01  1.24128E-06  1.0E-07
  1.200E+00  1.09658E-04  3.19757E-16  1.14187E+01  1.36332E-06  1.0E-07
  1.300E+00  1.28695E-04  3.12545E-16  1.11612E+01  1.48767E-06  1.0E-07
  1.400E+00  1.49255E-04  3.05023E-16  1.08926E+01  1.61447E-06  1.0E-07
  1.500E+00  1.71338E-04  2.97238E-16  1.06146E+01  1.74386E-06  1.0E-07
  1.600E+00  1.94942E-04  2.89239E-16  1.03289E+01  1.87597E-06  1.0E-07
  1.700E+00  2.20070E-04  2.81070E-16  1.00372E+01  2.01091E-06  1.0E-07
  1.800E+00  2.46720E-04  2.72775E-16  9.74098E+00  2.14881E-06  1.0E-07
  1.900E+00  2.74892E-04  2.64397E-16  9.44177E+00  2.28975E-06  1.0E-07
  2.000E+00  3.04586E-04  2.55974E-16  9.14099E+00  2.43382E-06  1.0E-07
  2.100E+00  3.35803E-04  2.47543E-16  8.83994E+00  2.58109E-06  1.0E-07
  2.200E+00  3.68542E-04  2.39140E-16  8.53984E+00  2.73161E-06  1.0E-07
  2.300E+00  4.02802E-04  2.30794E-16  8.24181E+00  2.88543E-06  1.0E-07
  2.400E+00  4.38585E-04  2.22535E-16  7.94686E+00  3.04259E-06  1.0E-07
  2.500E+00  4.75889E-04  2.14386E-16  7.65587E+00  3.20309E-06  1.0E-07
  2.600E+00  5.14715E-04  2.06371E-16  7.36964E+00  3.36695E-06  1.0E-07
  2.700E+00  5.55063E-04  1.98508E-16  7.08886E+00  3.53416E-06  1.0E-07
  2.800E+00  5.96931E-04  1.90815E-16  6.81412E+00  3.70469E-06  1.0E-07
  2.900E+00  6.40321E-04  1.83304E-16  6.54592E+00  3.87850E-06  1.0E-07
  3.000E+00  6.85233E-04  1.75988E-16  6.28466E+00  4.05555E-06  1.0E-07
  3.100E+00  7.31665E-04  1.68876E-16  6.03067E+00  4.23578E-06  1.0E-07
  3.200E+00  7.79618E-04  1.61974E-16  5.78421E+00  4.41910E-06  1.0E-07
  3.300E+00  8.29092E-04  1.55288E-16  5.54545E+00  4.60543E-06  1.0E-07
  3.400E+00  8.80086E-04  1.48821E-16  5.31451E+00  4.79467E-06  1.0E-07
  3.500E+00  9.32601E-04  1.42575E-16  5.09146E+00  4.98670E-06  1.0E-07
  3.600E+00  9.86636E-04  1.36551E-16  4.87631E+00  5.18139E-06  1.0E-07
  3.700E+00  1.04219E-03  1.30746E-16  4.66904E+00  5.37861E-06  1.0E-07
  3.800E+00  1.09927E-03  1.25161E-16  4.46958E+00  5.57820E-06  1.0E-07
  3.900E+00  1.15786E-03  1.19791E-16  4.27783E+00  5.78000E-06  1.0E-07
  4.000E+00  1.21797E-03  1.14634E-16  4.09366E+00  5.98384E-06  1.0E-07
  4.100E+00  1.27961E-03  1.09685E-16  3.91694E+00  6.18953E-06  1.0E-07
  4.200E+00  1.34276E-03  1.04940E-16  3.74748E+00  6.39688E-06  1.0E-07
  4.300E+00  1.40743E-03  1.00393E-16  3.58511E+00  6.60567E-06  1.0E-07
  4.400E+00  1.47362E-03  9.60396E-17  3.42964E+00  6.81570E-06  1.0E-07
  4.500E+00  1.54133E-03  9.18731E-17  3.28085E+00  7.02674E-06  1.0E-07
  4.600E+00  1.61056E-03  8.78879E-17  3.13853E+00  7.23855E-06  1.0E-07
  4.700E+00  1.68131E-03  8.40779E-17  3.00248E+00  7.45090E-06  1.0E-07
  4.800E+00  1.75357E-03  8.04370E-17  2.87246E+00  7.66353E-06  1.0E-07
  4.900E+00  1.82735E-03  7.69590E-17  2.74825E+00  7.87619E-06  1.0E-07
  5.000E+00  1.90265E-03  7.36376E-17  2.62965E+00  8.08861E-06  1.0E-07
  5.100E+00  1.97947E-03  7.04669E-17  2.51642E+00  8.30053E-06  1.0E-07
  5.200E+00  2.05780E-03  6.74406E-17  2.40835E+00  8.51166E-06  1.0E-07
  5.300E+00  2.13765E-03  6.45529E-17  2.30522E+00  8.72173E-06  1.0E-07
  5.400E+00  2.21902E-03  6.17978E-17  2.20684E+00  8.93045E-06  1.0E-07
  5.500E+00  2.30190E-03  5.91696E-17  2.11298E+00  9.13752E-06  1.0E-07
  5.600E+00  2.38630E-03  5.66627E-17  2.02346E+00  9.34266E-06  1.0E-07
  5.700E+00  2.47222E-03  5.42719E-17  1.93808E+00  9.54557E-06  1.0E-07
  5.800E+00  2.55965E-03  5.19916E-17  1.85666E+00  9.74593E-06  1.0E-07
  5.900E+00  2.64859E-03  4.98170E-17  1.77900E+00  9.94346E-06  1.0E-07
  6.000E+00  2.73905E-03  4.77432E-17  1.70494E+00  1.01378E-05  1.0E-07
  6.100E+00  2.83103E-03  4.57653E-17  1.63431E+00  1.03287E-05  1.0E-07
  6.200E+00  2.92452E-03  4.38790E-17  1.56695E+00  1.05159E-05  1.0E-07
  6.300E+00  3.01952E-03  4.20798E-17  1.50270E+00  1.06989E-05  1.0E-07
  6.400E+00  3.11604E-03  4.03636E-17  1.44141E+00  1.08775E-05  1.0E-07
  6.500E+00  3.21407E-03  3.87265E-17  1.38295E+00  1.10514E-05  1.0E-07
  6.600E+00  3.31362E-03  3.71646E-17  1.32717E+00  1.12203E-05  1.0E-07
  6.700E+00  3.41468E-03  3.56743E-17  1.27395E+00  1.13838E-05  1.0E-07
  6.800E+00  3.51725E-03  3.42521E-17  1.22316E+00  1.15416E-05  1.0E-07
  6.900E+00  3.62133E-03  3.28947E-17  1.17469E+00  1.16934E-05  1.0E-07
  7.000E+00  3.72692E-03  3.15990E-17  1.12842E+00  1.18389E-05  1.0E-07
  7.100E+00  3.83403E-03  3.03621E-17  1.08425E+00  1.19778E-05  1.0E-07
  7.200E+00  3.94265E-03  2.91809E-17  1.04207E+00  1.21097E-05  1.0E-07
  7.300E+00  4.05278E-03  2.80529E-17  1.00179E+00  1.22344E-05  1.0E-07
  7.400E+00  4.16442E-03  2.69753E-17  9.63307E-01  1.23515E-05  1.0E-07
  7.500E+00  4.27757E-03  2.59459E-17  9.26545E-01  1.24607E-05  1.0E-07
  7.600E+00  4.39223E-03  2.49622E-17  8.91417E-01  1.25618E-05  1.0E-07
  7.700E+00  4.50840E-03  2.40220E-17  8.57842E-01  1.26543E-05  1.0E-07
  7.800E+00  4.62608E-03  2.31232E-17  8.25745E-01  1.27381E-05  1.0E-07
  7.900E+00  4.74527E-03  2.22638E-17  7.95056E-01  1.28128E-05  1.0E-07
  8.000E+00  4.86597E-03  2.14419E-17  7.65705E-01  1.28781E-05  1.0E-07
  8.100E+00  4.98817E-03  2.06557E-17  7.37629E-01  1.29337E-05  1.0E-07
  8.200E+00  5.11188E-03  1.99034E-17  7.10765E-01  1.29794E-05  1.0E-07
  8.300E+00  5.23711E-03  1.91835E-17  6.85055E-01  1.30148E-05  1.0E-07
  8.400E+00  5.36383E-03  1.84943E-17  6.60444E-01  1.30396E-05  1.0E-07
  8.500E+00  5.49207E-03  1.78345E-17  6.36880E-01  1.30536E-05  1.0E-07
  8.600E+00  5.62181E-03  1.72025E-17  6.14312E-01  1.30565E-05  1.0E-07
  8.700E+00  5.75306E-03  1.65971E-17  5.92693E-01  1.30480E-05  1.0E-07
  8.800E+00  5.88581E-03  1.60170E-17  5.71979E-01  1.30278E-05  1.0E-07
  8.900E+00  6.02007E-03  1.54611E-17  5.52126E-01  1.29956E-05  1.0E-07
  9.000E+00  6.15583E-03  1.49282E-17  5.33095E-01  1.29512E-05  1.0E-07
  9.100E+00  6.29310E-03  1.44171E-17  5.14846E-01  1.28943E-05  1.0E-07
  9.200E+00  6.43187E-03  1.39270E-17  4.97343E-01  1.28247E-05  1.0E-07
  9.300E+00  6.57214E-03  1.34568E-17  4.80552E-01  1.27420E-05  1.0E-07
  9.400E+00  6.71392E-03  1.30056E-17  4.64440E-01  1.26461E-05  1.0E-07
  9.500E+00  6.85720E-03  1.25726E-17  4.48975E-01  1.25366E-05  1.0E-07
  9.600E+00  7.00198E-03  1.21569E-17  4.34129E-01  1.24133E-05  1.0E-07
  9.700E+00  7.14827E-03  1.17576E-17  4.19873E-01  1.22760E-05  1.0E-07
  9.800E+00  7.29605E-03  1.13742E-17  4.06179E-01  1.21245E-05  1.0E-07
  9.900E+00  7.44534E-03  1.10058E-17  3.93024E-01  1.19584E-05  1.0E-07
  1.000E+01  7.59612E-03  1.06518E-17  3.80382E-01  1.17777E-05  1.0E-07
  1.025E+01  7.97965E-03  9.82551E-18  3.50875E-01  1.12597E-05  1.0E-07
  1.050E+01  8.37255E-03  9.07599E-18  3.24110E-01  1.06448E-05  1.0E-07
  1.075E+01  8.77480E-03  8.39506E-18  2.99793E-01  9.92933E-06  1.0E-07
  1.100E+01  9.18641E-03  7.77554E-18  2.77670E-01  9.11009E-06  1.0E-07
  1.125E+01  9.60736E-03  7.21107E-18  2.57512E-01  8.18382E-06  1.0E-07
  1.150E+01  1.00376E-02  6.69602E-18  2.39119E-01  7.14741E-06  1.0E-07
  1.175E+01  1.04773E-02  6.22542E-18  2.22314E-01  5.99791E-06  1.0E-07
  1.200E+01  1.09262E-02  5.79483E-18  2.06937E-01  4.73246E-06  1.0E-07
  1.225E+01  1.13844E-02  5.40033E-18  1.92849E-01  3.34837E-06  1.0E-07
  1.250E+01  1.18520E-02  5.03843E-18  1.79926E-01  0.00000E+00  1.0E-07
  1.275E+01  1.23288E-02  4.70601E-18  1.68055E-01  0.00000E+00  1.0E-07
  1.300E+01  1.28150E-02  4.40027E-18  1.57136E-01  0.00000E+00  1.0E-07
  1.325E+01  1.33104E-02  4.11873E-18  1.47082E-01 -3.42513E-06  1.0E-07
  1.350E+01  1.38150E-02  3.85915E-18  1.37813E-01 -5.43985E-06  1.0E-07
  1.375E+01  1.43290E-02  3.61954E-18  1.29256E-01 -7.58767E-06  1.0E-07
  1.400E+01  1.48521E-02  3.39810E-18  1.21349E-01 -9.87069E-06  1.0E-07
  1.425E+01  1.53845E-02  3.19324E-18  1.14033E-01 -1.22909E-05  1.0E-07
  1.450E+01  1.59262E-02  3.00349E-18  1.07257E-01 -1.48503E-05  1.0E-07
  1.475E+01  1.64770E-02  2.82756E-18  1.00974E-01 -1.75505E-05  1.0E-07
