 #
 # Subroutine ELSEPA. Elastic scattering of electrons and positrons
 #                    by neutral atoms and positive ions
 #
 # Projectile: electron
 # Kinetic energy = 1.90000E+04 eV = 6.98237E+02 a.u.
 #
 # Element:  O,  Z =   8,  atomic weight = 1.59994E+01 g/mol
 #
 # Nuclear model: Fermi distribution
 #                Average radius = 2.69620E-13 cm
 #                Skin thickness = 5.46000E-14 cm
 #
 # Number of electrons =  8
 #
 # Electron density: analytical DHFS model
 #                   A1 =  6.25130D-02 ,   ALPHA1 = 1.48233D+01
 #                   A2 =  9.37487D-01 ,   ALPHA2 = 2.04035D+00
 #                   A3 =  0.00000D+00 ,   ALPHA3 = 1.00000D+00
 #                   Volume integral = 8.00000E+00
 #
 # Muffin-tin model: Rmt = 3.22000E-08 cm
 #
 # Furness-McCarthy exchange potential
 #
 # Total elastic cross section = 3.57203E-18 cm**2 = 1.27560E-01 a0**2
 # 1st transport cross section = 3.53326E-20 cm**2 = 1.26175E-03 a0**2
 # 2nd transport cross section = 8.83227E-20 cm**2 = 3.15406E-03 a0**2
 #
 #
 # Differential cross section:                       MU=(1-COS(THETA))/2
 #
 #  THETA        MU          DCS          DCS        Sherman      error
 #  (deg)                 (cm**2/sr)   (a0**2/sr)    function
 #----------------------------------------------------------------------
  0.000E+00  0.00000E+00  3.86260E-16  1.37936E+01  0.00000E+00  1.0E-07
  1.000E-04  7.61557E-13  3.86260E-16  1.37936E+01  7.31800E-11  1.0E-07
  1.250E-04  1.18994E-12  3.86260E-16  1.37936E+01  9.14750E-11  1.0E-07
  1.500E-04  1.71346E-12  3.86260E-16  1.37936E+01  1.09770E-10  1.0E-07
  1.750E-04  2.33225E-12  3.86260E-16  1.37936E+01  1.28065E-10  1.0E-07
  2.000E-04  3.04617E-12  3.86260E-16  1.37936E+01  1.46360E-10  1.0E-07
  2.250E-04  3.85530E-12  3.86260E-16  1.37936E+01  1.64655E-10  1.0E-07
  2.500E-04  4.75964E-12  3.86260E-16  1.37936E+01  1.82950E-10  1.0E-07
  2.750E-04  5.75917E-12  3.86260E-16  1.37936E+01  2.01245E-10  1.0E-07
  3.000E-04  6.85391E-12  3.86260E-16  1.37936E+01  2.19540E-10  1.0E-07
  3.250E-04  8.04379E-12  3.86260E-16  1.37936E+01  2.37835E-10  1.0E-07
  3.500E-04  9.32893E-12  3.86260E-16  1.37936E+01  2.56130E-10  1.0E-07
  3.750E-04  1.07092E-11  3.86260E-16  1.37936E+01  2.74425E-10  1.0E-07
  4.000E-04  1.21847E-11  3.86260E-16  1.37936E+01  2.92720E-10  1.0E-07
  4.250E-04  1.37554E-11  3.86260E-16  1.37936E+01  3.11015E-10  1.0E-07
  4.500E-04  1.54213E-11  3.86260E-16  1.37936E+01  3.29310E-10  1.0E-07
  4.750E-04  1.71823E-11  3.86260E-16  1.37936E+01  3.47605E-10  1.0E-07
  5.000E-04  1.90386E-11  3.86260E-16  1.37936E+01  3.65900E-10  1.0E-07
  5.250E-04  2.09900E-11  3.86260E-16  1.37936E+01  3.84195E-10  1.0E-07
  5.500E-04  2.30367E-11  3.86260E-16  1.37936E+01  4.02490E-10  1.0E-07
  5.750E-04  2.51785E-11  3.86260E-16  1.37936E+01  4.20785E-10  1.0E-07
  6.000E-04  2.74156E-11  3.86260E-16  1.37936E+01  4.39080E-10  1.0E-07
  6.250E-04  2.97478E-11  3.86260E-16  1.37936E+01  4.57375E-10  1.0E-07
  6.500E-04  3.21752E-11  3.86260E-16  1.37936E+01  4.75670E-10  1.0E-07
  6.750E-04  3.46979E-11  3.86260E-16  1.37936E+01  4.93965E-10  1.0E-07
  7.000E-04  3.73157E-11  3.86260E-16  1.37936E+01  5.12260E-10  1.0E-07
  7.250E-04  4.00286E-11  3.86260E-16  1.37936E+01  5.30555E-10  1.0E-07
  7.500E-04  4.28368E-11  3.86260E-16  1.37936E+01  5.48850E-10  1.0E-07
  7.750E-04  4.57402E-11  3.86260E-16  1.37936E+01  5.67145E-10  1.0E-07
  8.000E-04  4.87388E-11  3.86260E-16  1.37936E+01  5.85440E-10  1.0E-07
  8.250E-04  5.18325E-11  3.86260E-16  1.37936E+01  6.03735E-10  1.0E-07
  8.500E-04  5.50215E-11  3.86260E-16  1.37936E+01  6.22030E-10  1.0E-07
  8.750E-04  5.83057E-11  3.86260E-16  1.37936E+01  6.40325E-10  1.0E-07
  9.000E-04  6.16850E-11  3.86260E-16  1.37936E+01  6.58620E-10  1.0E-07
  9.250E-04  6.51595E-11  3.86260E-16  1.37936E+01  6.76915E-10  1.0E-07
  9.500E-04  6.87293E-11  3.86260E-16  1.37936E+01  6.95210E-10  1.0E-07
  9.750E-04  7.23943E-11  3.86260E-16  1.37936E+01  7.13505E-10  1.0E-07
  1.000E-03  7.61544E-11  3.86260E-16  1.37936E+01  7.31800E-10  1.0E-07
  1.250E-03  1.18991E-10  3.86260E-16  1.37936E+01  9.14750E-10  1.0E-07
  1.500E-03  1.71347E-10  3.86260E-16  1.37936E+01  1.09770E-09  1.0E-07
  1.750E-03  2.33223E-10  3.86260E-16  1.37936E+01  1.28065E-09  1.0E-07
  2.000E-03  3.04617E-10  3.86260E-16  1.37936E+01  1.46360E-09  1.0E-07
  2.250E-03  3.85531E-10  3.86260E-16  1.37936E+01  1.64655E-09  1.0E-07
  2.500E-03  4.75965E-10  3.86260E-16  1.37936E+01  1.82950E-09  1.0E-07
  2.750E-03  5.75917E-10  3.86260E-16  1.37936E+01  2.01245E-09  1.0E-07
  3.000E-03  6.85389E-10  3.86260E-16  1.37936E+01  2.19540E-09  1.0E-07
  3.250E-03  8.04380E-10  3.86260E-16  1.37936E+01  2.37835E-09  1.0E-07
  3.500E-03  9.32891E-10  3.86259E-16  1.37936E+01  2.56130E-09  1.0E-07
  3.750E-03  1.07092E-09  3.86259E-16  1.37936E+01  2.74425E-09  1.0E-07
  4.000E-03  1.21847E-09  3.86259E-16  1.37936E+01  2.92720E-09  1.0E-07
  4.250E-03  1.37554E-09  3.86259E-16  1.37936E+01  3.11015E-09  1.0E-07
  4.500E-03  1.54213E-09  3.86259E-16  1.37936E+01  3.29311E-09  1.0E-07
  4.750E-03  1.71823E-09  3.86259E-16  1.37935E+01  3.47606E-09  1.0E-07
  5.000E-03  1.90386E-09  3.86258E-16  1.37935E+01  3.65901E-09  1.0E-07
  5.250E-03  2.09900E-09  3.86258E-16  1.37935E+01  3.84196E-09  1.0E-07
  5.500E-03  2.30367E-09  3.86258E-16  1.37935E+01  4.02491E-09  1.0E-07
  5.750E-03  2.51785E-09  3.86258E-16  1.37935E+01  4.20786E-09  1.0E-07
  6.000E-03  2.74156E-09  3.86258E-16  1.37935E+01  4.39081E-09  1.0E-07
  6.250E-03  2.97478E-09  3.86257E-16  1.37935E+01  4.57376E-09  1.0E-07
  6.500E-03  3.21752E-09  3.86257E-16  1.37935E+01  4.75671E-09  1.0E-07
  6.750E-03  3.46978E-09  3.86257E-16  1.37935E+01  4.93967E-09  1.0E-07
  7.000E-03  3.73156E-09  3.86256E-16  1.37935E+01  5.12262E-09  1.0E-07
  7.250E-03  4.00286E-09  3.86256E-16  1.37935E+01  5.30557E-09  1.0E-07
  7.500E-03  4.28368E-09  3.86256E-16  1.37934E+01  5.48852E-09  1.0E-07
  7.750E-03  4.57402E-09  3.86256E-16  1.37934E+01  5.67147E-09  1.0E-07
  8.000E-03  4.87388E-09  3.86255E-16  1.37934E+01  5.85443E-09  1.0E-07
  8.250E-03  5.18326E-09  3.86255E-16  1.37934E+01  6.03738E-09  1.0E-07
  8.500E-03  5.50215E-09  3.86255E-16  1.37934E+01  6.22033E-09  1.0E-07
  8.750E-03  5.83057E-09  3.86254E-16  1.37934E+01  6.40328E-09  1.0E-07
  9.000E-03  6.16850E-09  3.86254E-16  1.37934E+01  6.58624E-09  1.0E-07
  9.250E-03  6.51596E-09  3.86254E-16  1.37934E+01  6.76919E-09  1.0E-07
  9.500E-03  6.87293E-09  3.86253E-16  1.37934E+01  6.95214E-09  1.0E-07
  9.750E-03  7.23942E-09  3.86253E-16  1.37933E+01  7.13510E-09  1.0E-07
  1.000E-02  7.61544E-09  3.86252E-16  1.37933E+01  7.31805E-09  1.0E-07
  1.250E-02  1.18991E-08  3.86248E-16  1.37932E+01  9.14760E-09  1.0E-07
  1.500E-02  1.71347E-08  3.86242E-16  1.37930E+01  1.09772E-08  1.0E-07
  1.750E-02  2.33223E-08  3.86236E-16  1.37927E+01  1.28068E-08  1.0E-07
  2.000E-02  3.04617E-08  3.86228E-16  1.37925E+01  1.46364E-08  1.0E-07
  2.250E-02  3.85531E-08  3.86220E-16  1.37922E+01  1.64661E-08  1.0E-07
  2.500E-02  4.75965E-08  3.86210E-16  1.37918E+01  1.82958E-08  1.0E-07
  2.750E-02  5.75917E-08  3.86200E-16  1.37914E+01  2.01255E-08  1.0E-07
  3.000E-02  6.85389E-08  3.86188E-16  1.37910E+01  2.19553E-08  1.0E-07
  3.250E-02  8.04380E-08  3.86176E-16  1.37906E+01  2.37852E-08  1.0E-07
  3.500E-02  9.32891E-08  3.86162E-16  1.37901E+01  2.56151E-08  1.0E-07
  3.750E-02  1.07092E-07  3.86148E-16  1.37896E+01  2.74451E-08  1.0E-07
  4.000E-02  1.21847E-07  3.86132E-16  1.37890E+01  2.92752E-08  1.0E-07
  4.250E-02  1.37554E-07  3.86116E-16  1.37884E+01  3.11053E-08  1.0E-07
  4.500E-02  1.54213E-07  3.86098E-16  1.37878E+01  3.29355E-08  1.0E-07
  4.750E-02  1.71823E-07  3.86080E-16  1.37872E+01  3.47658E-08  1.0E-07
  5.000E-02  1.90386E-07  3.86060E-16  1.37865E+01  3.65961E-08  1.0E-07
  5.250E-02  2.09900E-07  3.86040E-16  1.37857E+01  3.84266E-08  1.0E-07
  5.500E-02  2.30367E-07  3.86018E-16  1.37850E+01  4.02572E-08  1.0E-07
  5.750E-02  2.51785E-07  3.85996E-16  1.37842E+01  4.20878E-08  1.0E-07
  6.000E-02  2.74156E-07  3.85972E-16  1.37833E+01  4.39186E-08  1.0E-07
  6.250E-02  2.97478E-07  3.85947E-16  1.37824E+01  4.57495E-08  1.0E-07
  6.500E-02  3.21752E-07  3.85922E-16  1.37815E+01  4.75805E-08  1.0E-07
  6.750E-02  3.46978E-07  3.85895E-16  1.37806E+01  4.94116E-08  1.0E-07
  7.000E-02  3.73156E-07  3.85868E-16  1.37796E+01  5.12429E-08  1.0E-07
  7.250E-02  4.00286E-07  3.85839E-16  1.37786E+01  5.30742E-08  1.0E-07
  7.500E-02  4.28368E-07  3.85810E-16  1.37775E+01  5.49057E-08  1.0E-07
  7.750E-02  4.57402E-07  3.85779E-16  1.37764E+01  5.67374E-08  1.0E-07
  8.000E-02  4.87388E-07  3.85748E-16  1.37753E+01  5.85692E-08  1.0E-07
  8.250E-02  5.18325E-07  3.85715E-16  1.37741E+01  6.04011E-08  1.0E-07
  8.500E-02  5.50215E-07  3.85682E-16  1.37730E+01  6.22332E-08  1.0E-07
  8.750E-02  5.83057E-07  3.85647E-16  1.37717E+01  6.40654E-08  1.0E-07
  9.000E-02  6.16850E-07  3.85612E-16  1.37705E+01  6.58978E-08  1.0E-07
  9.250E-02  6.51596E-07  3.85575E-16  1.37692E+01  6.77304E-08  1.0E-07
  9.500E-02  6.87293E-07  3.85538E-16  1.37678E+01  6.95631E-08  1.0E-07
  9.750E-02  7.23942E-07  3.85500E-16  1.37664E+01  7.13960E-08  1.0E-07
  1.000E-01  7.61543E-07  3.85460E-16  1.37650E+01  7.32291E-08  1.0E-07
  1.250E-01  1.18991E-06  3.85011E-16  1.37490E+01  9.15709E-08  1.0E-07
  1.500E-01  1.71347E-06  3.84463E-16  1.37294E+01  1.09936E-07  1.0E-07
  1.750E-01  2.33223E-06  3.83817E-16  1.37064E+01  1.28328E-07  1.0E-07
  2.000E-01  3.04617E-06  3.83074E-16  1.36798E+01  1.46752E-07  1.0E-07
  2.250E-01  3.85531E-06  3.82234E-16  1.36498E+01  1.65213E-07  1.0E-07
  2.500E-01  4.75964E-06  3.81298E-16  1.36164E+01  1.83715E-07  1.0E-07
  2.750E-01  5.75916E-06  3.80268E-16  1.35796E+01  2.02263E-07  1.0E-07
  3.000E-01  6.85388E-06  3.79144E-16  1.35395E+01  2.20861E-07  1.0E-07
  3.250E-01  8.04378E-06  3.77929E-16  1.34961E+01  2.39513E-07  1.0E-07
  3.500E-01  9.32888E-06  3.76622E-16  1.34494E+01  2.58225E-07  1.0E-07
  3.750E-01  1.07092E-05  3.75226E-16  1.33996E+01  2.77000E-07  1.0E-07
  4.000E-01  1.21846E-05  3.73742E-16  1.33466E+01  2.95842E-07  1.0E-07
  4.250E-01  1.37553E-05  3.72172E-16  1.32905E+01  3.14757E-07  1.0E-07
  4.500E-01  1.54212E-05  3.70517E-16  1.32314E+01  3.33747E-07  1.0E-07
  4.750E-01  1.71822E-05  3.68779E-16  1.31694E+01  3.52819E-07  1.0E-07
  5.000E-01  1.90385E-05  3.66961E-16  1.31044E+01  3.71975E-07  1.0E-07
  5.250E-01  2.09899E-05  3.65063E-16  1.30366E+01  3.91220E-07  1.0E-07
  5.500E-01  2.30365E-05  3.63089E-16  1.29661E+01  4.10558E-07  1.0E-07
  5.750E-01  2.51783E-05  3.61039E-16  1.28929E+01  4.29993E-07  1.0E-07
  6.000E-01  2.74153E-05  3.58916E-16  1.28171E+01  4.49530E-07  1.0E-07
  6.250E-01  2.97475E-05  3.56723E-16  1.27388E+01  4.69171E-07  1.0E-07
  6.500E-01  3.21749E-05  3.54461E-16  1.26580E+01  4.88921E-07  1.0E-07
  6.750E-01  3.46974E-05  3.52133E-16  1.25749E+01  5.08784E-07  1.0E-07
  7.000E-01  3.73152E-05  3.49740E-16  1.24894E+01  5.28763E-07  1.0E-07
  7.250E-01  4.00281E-05  3.47286E-16  1.24018E+01  5.48863E-07  1.0E-07
  7.500E-01  4.28362E-05  3.44772E-16  1.23120E+01  5.69087E-07  1.0E-07
  7.750E-01  4.57395E-05  3.42202E-16  1.22202E+01  5.89438E-07  1.0E-07
  8.000E-01  4.87380E-05  3.39577E-16  1.21265E+01  6.09920E-07  1.0E-07
  8.250E-01  5.18317E-05  3.36899E-16  1.20309E+01  6.30536E-07  1.0E-07
  8.500E-01  5.50205E-05  3.34172E-16  1.19335E+01  6.51291E-07  1.0E-07
  8.750E-01  5.83045E-05  3.31397E-16  1.18344E+01  6.72186E-07  1.0E-07
  9.000E-01  6.16838E-05  3.28578E-16  1.17337E+01  6.93226E-07  1.0E-07
  9.250E-01  6.51582E-05  3.25715E-16  1.16315E+01  7.14413E-07  1.0E-07
  9.500E-01  6.87277E-05  3.22813E-16  1.15279E+01  7.35751E-07  1.0E-07
  9.750E-01  7.23925E-05  3.19873E-16  1.14229E+01  7.57242E-07  1.0E-07
  1.000E+00  7.61524E-05  3.16898E-16  1.13166E+01  7.78889E-07  1.0E-07
  1.100E+00  9.21439E-05  3.04692E-16  1.08808E+01  8.67097E-07  1.0E-07
  1.200E+00  1.09658E-04  2.92110E-16  1.04314E+01  9.58014E-07  1.0E-07
  1.300E+00  1.28695E-04  2.79292E-16  9.97369E+00  1.05178E-06  1.0E-07
  1.400E+00  1.49255E-04  2.66369E-16  9.51220E+00  1.14851E-06  1.0E-07
  1.500E+00  1.71338E-04  2.53459E-16  9.05119E+00  1.24830E-06  1.0E-07
  1.600E+00  1.94942E-04  2.40668E-16  8.59442E+00  1.35120E-06  1.0E-07
  1.700E+00  2.20070E-04  2.28086E-16  8.14512E+00  1.45725E-06  1.0E-07
  1.800E+00  2.46720E-04  2.15790E-16  7.70602E+00  1.56646E-06  1.0E-07
  1.900E+00  2.74892E-04  2.03843E-16  7.27937E+00  1.67880E-06  1.0E-07
  2.000E+00  3.04586E-04  1.92294E-16  6.86694E+00  1.79422E-06  1.0E-07
  2.100E+00  3.35803E-04  1.81181E-16  6.47010E+00  1.91266E-06  1.0E-07
  2.200E+00  3.68542E-04  1.70532E-16  6.08982E+00  2.03399E-06  1.0E-07
  2.300E+00  4.02802E-04  1.60364E-16  5.72672E+00  2.15810E-06  1.0E-07
  2.400E+00  4.38585E-04  1.50687E-16  5.38115E+00  2.28483E-06  1.0E-07
  2.500E+00  4.75889E-04  1.41504E-16  5.05320E+00  2.41399E-06  1.0E-07
  2.600E+00  5.14715E-04  1.32811E-16  4.74276E+00  2.54537E-06  1.0E-07
  2.700E+00  5.55063E-04  1.24600E-16  4.44955E+00  2.67875E-06  1.0E-07
  2.800E+00  5.96931E-04  1.16860E-16  4.17316E+00  2.81388E-06  1.0E-07
  2.900E+00  6.40321E-04  1.09577E-16  3.91307E+00  2.95047E-06  1.0E-07
  3.000E+00  6.85233E-04  1.02734E-16  3.66870E+00  3.08824E-06  1.0E-07
  3.100E+00  7.31665E-04  9.63125E-17  3.43938E+00  3.22687E-06  1.0E-07
  3.200E+00  7.79618E-04  9.02936E-17  3.22444E+00  3.36602E-06  1.0E-07
  3.300E+00  8.29092E-04  8.46575E-17  3.02318E+00  3.50536E-06  1.0E-07
  3.400E+00  8.80086E-04  7.93842E-17  2.83486E+00  3.64451E-06  1.0E-07
  3.500E+00  9.32601E-04  7.44537E-17  2.65879E+00  3.78311E-06  1.0E-07
  3.600E+00  9.86636E-04  6.98461E-17  2.49425E+00  3.92076E-06  1.0E-07
  3.700E+00  1.04219E-03  6.55423E-17  2.34056E+00  4.05708E-06  1.0E-07
  3.800E+00  1.09927E-03  6.15234E-17  2.19704E+00  4.19164E-06  1.0E-07
  3.900E+00  1.15786E-03  5.77714E-17  2.06305E+00  4.32405E-06  1.0E-07
  4.000E+00  1.21797E-03  5.42692E-17  1.93799E+00  4.45387E-06  1.0E-07
  4.100E+00  1.27961E-03  5.10002E-17  1.82125E+00  4.58068E-06  1.0E-07
  4.200E+00  1.34276E-03  4.79488E-17  1.71228E+00  4.70404E-06  1.0E-07
  4.300E+00  1.40743E-03  4.51005E-17  1.61057E+00  4.82352E-06  1.0E-07
  4.400E+00  1.47362E-03  4.24412E-17  1.51560E+00  4.93867E-06  1.0E-07
  4.500E+00  1.54133E-03  3.99580E-17  1.42693E+00  5.04905E-06  1.0E-07
  4.600E+00  1.61056E-03  3.76388E-17  1.34411E+00  5.15422E-06  1.0E-07
  4.700E+00  1.68131E-03  3.54722E-17  1.26673E+00  5.25373E-06  1.0E-07
  4.800E+00  1.75357E-03  3.34474E-17  1.19443E+00  5.34714E-06  1.0E-07
  4.900E+00  1.82735E-03  3.15547E-17  1.12684E+00  5.43401E-06  1.0E-07
  5.000E+00  1.90265E-03  2.97849E-17  1.06364E+00  5.51389E-06  1.0E-07
  5.100E+00  1.97947E-03  2.81292E-17  1.00451E+00  5.58636E-06  1.0E-07
  5.200E+00  2.05780E-03  2.65798E-17  9.49182E-01  5.65098E-06  1.0E-07
  5.300E+00  2.13765E-03  2.51293E-17  8.97382E-01  5.70732E-06  1.0E-07
  5.400E+00  2.21902E-03  2.37707E-17  8.48866E-01  5.75497E-06  1.0E-07
  5.500E+00  2.30190E-03  2.24976E-17  8.03404E-01  5.79349E-06  1.0E-07
  5.600E+00  2.38630E-03  2.13042E-17  7.60786E-01  5.82247E-06  1.0E-07
  5.700E+00  2.47222E-03  2.01848E-17  7.20814E-01  5.84151E-06  1.0E-07
  5.800E+00  2.55965E-03  1.91345E-17  6.83306E-01  5.85018E-06  1.0E-07
  5.900E+00  2.64859E-03  1.81484E-17  6.48092E-01  5.84810E-06  1.0E-07
  6.000E+00  2.73905E-03  1.72222E-17  6.15016E-01  5.83485E-06  1.0E-07
  6.100E+00  2.83103E-03  1.63518E-17  5.83933E-01  5.81004E-06  1.0E-07
  6.200E+00  2.92452E-03  1.55334E-17  5.54707E-01  5.77329E-06  1.0E-07
  6.300E+00  3.01952E-03  1.47635E-17  5.27213E-01  5.72421E-06  1.0E-07
  6.400E+00  3.11604E-03  1.40389E-17  5.01337E-01  5.66244E-06  1.0E-07
  6.500E+00  3.21407E-03  1.33565E-17  4.76970E-01  5.58761E-06  1.0E-07
  6.600E+00  3.31362E-03  1.27137E-17  4.54014E-01  5.49935E-06  1.0E-07
  6.700E+00  3.41468E-03  1.21077E-17  4.32375E-01  5.39732E-06  1.0E-07
  6.800E+00  3.51725E-03  1.15363E-17  4.11967E-01  5.28117E-06  1.0E-07
  6.900E+00  3.62133E-03  1.09971E-17  3.92712E-01  5.15057E-06  1.0E-07
  7.000E+00  3.72692E-03  1.04880E-17  3.74535E-01  5.00519E-06  1.0E-07
  7.100E+00  3.83403E-03  1.00073E-17  3.57366E-01  4.84469E-06  1.0E-07
  7.200E+00  3.94265E-03  9.55297E-18  3.41143E-01  4.66875E-06  1.0E-07
  7.300E+00  4.05278E-03  9.12346E-18  3.25805E-01  4.47705E-06  1.0E-07
  7.400E+00  4.16442E-03  8.71719E-18  3.11296E-01  4.26928E-06  1.0E-07
  7.500E+00  4.27757E-03  8.33271E-18  2.97566E-01  4.04512E-06  1.0E-07
  7.600E+00  4.39223E-03  7.96868E-18  2.84567E-01  3.80426E-06  1.0E-07
  7.700E+00  4.50840E-03  7.62384E-18  2.72252E-01  3.54641E-06  1.0E-07
  7.800E+00  4.62608E-03  7.29703E-18  2.60582E-01  3.27127E-06  1.0E-07
  7.900E+00  4.74527E-03  6.98716E-18  2.49516E-01  2.97855E-06  1.0E-07
  8.000E+00  4.86597E-03  6.69321E-18  2.39019E-01  2.66797E-06  1.0E-07
  8.100E+00  4.98817E-03  6.41425E-18  2.29057E-01  0.00000E+00  1.0E-07
  8.200E+00  5.11188E-03  6.14938E-18  2.19598E-01  0.00000E+00  1.0E-07
  8.300E+00  5.23711E-03  5.89778E-18  2.10614E-01  0.00000E+00  1.0E-07
  8.400E+00  5.36383E-03  5.65869E-18  2.02076E-01  0.00000E+00  1.0E-07
  8.500E+00  5.49207E-03  5.43138E-18  1.93958E-01  0.00000E+00  1.0E-07
  8.600E+00  5.62181E-03  5.21518E-18  1.86237E-01  0.00000E+00  1.0E-07
  8.700E+00  5.75306E-03  5.00945E-18  1.78891E-01  0.00000E+00  1.0E-07
  8.800E+00  5.88581E-03  4.81361E-18  1.71897E-01  0.00000E+00  1.0E-07
  8.900E+00  6.02007E-03  4.62711E-18  1.65237E-01  0.00000E+00  1.0E-07
  9.000E+00  6.15583E-03  4.44941E-18  1.58891E-01  0.00000E+00  1.0E-07
  9.100E+00  6.29310E-03  4.28005E-18  1.52843E-01  0.00000E+00  1.0E-07
  9.200E+00  6.43187E-03  4.11856E-18  1.47076E-01  0.00000E+00  1.0E-07
  9.300E+00  6.57214E-03  3.96451E-18  1.41575E-01 -3.11163E-06  1.0E-07
  9.400E+00  6.71392E-03  3.81750E-18  1.36325E-01 -3.69874E-06  1.0E-07
  9.500E+00  6.85720E-03  3.67716E-18  1.31314E-01 -4.30736E-06  1.0E-07
  9.600E+00  7.00198E-03  3.54314E-18  1.26528E-01 -4.93771E-06  1.1E-07
  9.700E+00  7.14827E-03  3.41510E-18  1.21955E-01 -5.58999E-06  1.1E-07
  9.800E+00  7.29605E-03  3.29272E-18  1.17585E-01 -6.26440E-06  1.0E-07
  9.900E+00  7.44534E-03  3.17572E-18  1.13407E-01 -6.96113E-06  1.0E-07
  1.000E+01  7.59612E-03  3.06382E-18  1.09411E-01 -7.68037E-06  1.0E-07
  1.025E+01  7.97965E-03  2.80470E-18  1.00158E-01 -9.57815E-06  1.0E-07
  1.050E+01  8.37255E-03  2.57219E-18  9.18546E-02 -1.16207E-05  1.2E-07
  1.075E+01  8.77480E-03  2.36311E-18  8.43880E-02 -1.38108E-05  1.0E-07
  1.100E+01  9.18641E-03  2.17470E-18  7.76598E-02 -1.61515E-05  1.0E-07
  1.125E+01  9.60736E-03  2.00458E-18  7.15850E-02 -1.86454E-05  1.4E-07
  1.150E+01  1.00376E-02  1.85070E-18  6.60896E-02 -2.12951E-05  1.0E-07
  1.175E+01  1.04773E-02  1.71123E-18  6.11091E-02 -2.41027E-05  1.0E-07
  1.200E+01  1.09262E-02  1.58460E-18  5.65872E-02 -2.70706E-05  1.4E-07
  1.225E+01  1.13844E-02  1.46943E-18  5.24744E-02 -3.02010E-05  1.0E-07
  1.250E+01  1.18520E-02  1.36451E-18  4.87275E-02 -3.34963E-05  1.0E-07
  1.275E+01  1.23288E-02  1.26876E-18  4.53082E-02 -3.69588E-05  1.5E-07
  1.300E+01  1.28150E-02  1.18125E-18  4.21830E-02 -4.05904E-05  1.3E-07
  1.325E+01  1.33104E-02  1.10114E-18  3.93223E-02 -4.43930E-05  1.0E-07
  1.350E+01  1.38150E-02  1.02770E-18  3.66997E-02 -4.83683E-05  1.5E-07
  1.375E+01  1.43290E-02  9.60275E-19  3.42920E-02 -5.25182E-05  1.5E-07
  1.400E+01  1.48521E-02  8.98289E-19  3.20785E-02 -5.68445E-05  1.0E-07
  1.425E+01  1.53845E-02  8.41225E-19  3.00407E-02 -6.13493E-05  1.4E-07
  1.450E+01  1.59262E-02  7.88621E-19  2.81622E-02 -6.60340E-05  1.8E-07
  1.475E+01  1.64770E-02  7.40068E-19  2.64283E-02 -7.09003E-05  1.0E-07
