 #
 # Subroutine ELSEPA. Elastic scattering of electrons and positrons
 #                    by neutral atoms and positive ions
 #
 # Projectile: electron
 # Kinetic energy = 2.00000E+03 eV = 7.34987E+01 a.u.
 #
 # Element:  O,  Z =   8,  atomic weight = 1.59994E+01 g/mol
 #
 # Nuclear model: Fermi distribution
 #                Average radius = 2.69620E-13 cm
 #                Skin thickness = 5.46000E-14 cm
 #
 # Number of electrons =  8
 #
 # Electron density: analytical DHFS model
 #                   A1 =  6.25130D-02 ,   ALPHA1 = 1.48233D+01
 #                   A2 =  9.37487D-01 ,   ALPHA2 = 2.04035D+00
 #                   A3 =  0.00000D+00 ,   ALPHA3 = 1.00000D+00
 #                   Volume integral = 8.00000E+00
 #
 # Muffin-tin model: Rmt = 3.22000E-08 cm
 #
 # Furness-McCarthy exchange potential
 #
 # Total elastic cross section = 2.84159E-17 cm**2 = 1.01475E+00 a0**2
 # 1st transport cross section = 1.93409E-18 cm**2 = 6.90676E-02 a0**2
 # 2nd transport cross section = 4.16908E-18 cm**2 = 1.48881E-01 a0**2
 #
 #
 # Differential cross section:                       MU=(1-COS(THETA))/2
 #
 #  THETA        MU          DCS          DCS        Sherman      error
 #  (deg)                 (cm**2/sr)   (a0**2/sr)    function
 #----------------------------------------------------------------------
  0.000E+00  0.00000E+00  3.27230E-16  1.16856E+01  0.00000E+00  1.0E-07
  1.000E-04  7.61557E-13  3.27230E-16  1.16856E+01  2.28467E-10  1.0E-07
  1.250E-04  1.18994E-12  3.27230E-16  1.16856E+01  2.85583E-10  1.0E-07
  1.500E-04  1.71346E-12  3.27230E-16  1.16856E+01  3.42700E-10  1.0E-07
  1.750E-04  2.33225E-12  3.27230E-16  1.16856E+01  3.99817E-10  1.0E-07
  2.000E-04  3.04617E-12  3.27230E-16  1.16856E+01  4.56933E-10  1.0E-07
  2.250E-04  3.85530E-12  3.27230E-16  1.16856E+01  5.14050E-10  1.0E-07
  2.500E-04  4.75964E-12  3.27230E-16  1.16856E+01  5.71167E-10  1.0E-07
  2.750E-04  5.75917E-12  3.27230E-16  1.16856E+01  6.28283E-10  1.0E-07
  3.000E-04  6.85391E-12  3.27230E-16  1.16856E+01  6.85400E-10  1.0E-07
  3.250E-04  8.04379E-12  3.27230E-16  1.16856E+01  7.42517E-10  1.0E-07
  3.500E-04  9.32893E-12  3.27230E-16  1.16856E+01  7.99633E-10  1.0E-07
  3.750E-04  1.07092E-11  3.27230E-16  1.16856E+01  8.56750E-10  1.0E-07
  4.000E-04  1.21847E-11  3.27230E-16  1.16856E+01  9.13867E-10  1.0E-07
  4.250E-04  1.37554E-11  3.27230E-16  1.16856E+01  9.70983E-10  1.0E-07
  4.500E-04  1.54213E-11  3.27230E-16  1.16856E+01  1.02810E-09  1.0E-07
  4.750E-04  1.71823E-11  3.27230E-16  1.16856E+01  1.08522E-09  1.0E-07
  5.000E-04  1.90386E-11  3.27230E-16  1.16856E+01  1.14233E-09  1.0E-07
  5.250E-04  2.09900E-11  3.27230E-16  1.16856E+01  1.19945E-09  1.0E-07
  5.500E-04  2.30367E-11  3.27230E-16  1.16856E+01  1.25657E-09  1.0E-07
  5.750E-04  2.51785E-11  3.27230E-16  1.16856E+01  1.31368E-09  1.0E-07
  6.000E-04  2.74156E-11  3.27230E-16  1.16856E+01  1.37080E-09  1.0E-07
  6.250E-04  2.97478E-11  3.27230E-16  1.16856E+01  1.42792E-09  1.0E-07
  6.500E-04  3.21752E-11  3.27230E-16  1.16856E+01  1.48503E-09  1.0E-07
  6.750E-04  3.46979E-11  3.27230E-16  1.16856E+01  1.54215E-09  1.0E-07
  7.000E-04  3.73157E-11  3.27230E-16  1.16856E+01  1.59927E-09  1.0E-07
  7.250E-04  4.00286E-11  3.27230E-16  1.16856E+01  1.65638E-09  1.0E-07
  7.500E-04  4.28368E-11  3.27230E-16  1.16856E+01  1.71350E-09  1.0E-07
  7.750E-04  4.57402E-11  3.27230E-16  1.16856E+01  1.77062E-09  1.0E-07
  8.000E-04  4.87388E-11  3.27230E-16  1.16856E+01  1.82773E-09  1.0E-07
  8.250E-04  5.18325E-11  3.27230E-16  1.16856E+01  1.88485E-09  1.0E-07
  8.500E-04  5.50215E-11  3.27230E-16  1.16856E+01  1.94197E-09  1.0E-07
  8.750E-04  5.83057E-11  3.27230E-16  1.16856E+01  1.99908E-09  1.0E-07
  9.000E-04  6.16850E-11  3.27230E-16  1.16856E+01  2.05620E-09  1.0E-07
  9.250E-04  6.51595E-11  3.27230E-16  1.16856E+01  2.11332E-09  1.0E-07
  9.500E-04  6.87293E-11  3.27230E-16  1.16856E+01  2.17043E-09  1.0E-07
  9.750E-04  7.23943E-11  3.27230E-16  1.16856E+01  2.22755E-09  1.0E-07
  1.000E-03  7.61544E-11  3.27230E-16  1.16856E+01  2.28467E-09  1.0E-07
  1.250E-03  1.18991E-10  3.27230E-16  1.16856E+01  2.85583E-09  1.0E-07
  1.500E-03  1.71347E-10  3.27230E-16  1.16856E+01  3.42700E-09  1.0E-07
  1.750E-03  2.33223E-10  3.27230E-16  1.16856E+01  3.99817E-09  1.0E-07
  2.000E-03  3.04617E-10  3.27230E-16  1.16856E+01  4.56933E-09  1.0E-07
  2.250E-03  3.85531E-10  3.27230E-16  1.16856E+01  5.14050E-09  1.0E-07
  2.500E-03  4.75965E-10  3.27230E-16  1.16856E+01  5.71167E-09  1.0E-07
  2.750E-03  5.75917E-10  3.27230E-16  1.16856E+01  6.28283E-09  1.0E-07
  3.000E-03  6.85389E-10  3.27230E-16  1.16856E+01  6.85400E-09  1.0E-07
  3.250E-03  8.04380E-10  3.27230E-16  1.16856E+01  7.42517E-09  1.0E-07
  3.500E-03  9.32891E-10  3.27230E-16  1.16856E+01  7.99633E-09  1.0E-07
  3.750E-03  1.07092E-09  3.27230E-16  1.16856E+01  8.56750E-09  1.0E-07
  4.000E-03  1.21847E-09  3.27230E-16  1.16856E+01  9.13867E-09  1.0E-07
  4.250E-03  1.37554E-09  3.27230E-16  1.16856E+01  9.70983E-09  1.0E-07
  4.500E-03  1.54213E-09  3.27230E-16  1.16856E+01  1.02810E-08  1.0E-07
  4.750E-03  1.71823E-09  3.27230E-16  1.16856E+01  1.08522E-08  1.0E-07
  5.000E-03  1.90386E-09  3.27229E-16  1.16856E+01  1.14233E-08  1.0E-07
  5.250E-03  2.09900E-09  3.27229E-16  1.16856E+01  1.19945E-08  1.0E-07
  5.500E-03  2.30367E-09  3.27229E-16  1.16856E+01  1.25657E-08  1.0E-07
  5.750E-03  2.51785E-09  3.27229E-16  1.16856E+01  1.31368E-08  1.0E-07
  6.000E-03  2.74156E-09  3.27229E-16  1.16856E+01  1.37080E-08  1.0E-07
  6.250E-03  2.97478E-09  3.27229E-16  1.16856E+01  1.42792E-08  1.0E-07
  6.500E-03  3.21752E-09  3.27229E-16  1.16856E+01  1.48503E-08  1.0E-07
  6.750E-03  3.46978E-09  3.27229E-16  1.16856E+01  1.54215E-08  1.0E-07
  7.000E-03  3.73156E-09  3.27229E-16  1.16856E+01  1.59927E-08  1.0E-07
  7.250E-03  4.00286E-09  3.27229E-16  1.16856E+01  1.65638E-08  1.0E-07
  7.500E-03  4.28368E-09  3.27229E-16  1.16856E+01  1.71350E-08  1.0E-07
  7.750E-03  4.57402E-09  3.27229E-16  1.16856E+01  1.77062E-08  1.0E-07
  8.000E-03  4.87388E-09  3.27229E-16  1.16856E+01  1.82773E-08  1.0E-07
  8.250E-03  5.18326E-09  3.27229E-16  1.16856E+01  1.88485E-08  1.0E-07
  8.500E-03  5.50215E-09  3.27229E-16  1.16856E+01  1.94197E-08  1.0E-07
  8.750E-03  5.83057E-09  3.27229E-16  1.16856E+01  1.99908E-08  1.0E-07
  9.000E-03  6.16850E-09  3.27229E-16  1.16856E+01  2.05620E-08  1.0E-07
  9.250E-03  6.51596E-09  3.27229E-16  1.16856E+01  2.11332E-08  1.0E-07
  9.500E-03  6.87293E-09  3.27229E-16  1.16856E+01  2.17043E-08  1.0E-07
  9.750E-03  7.23942E-09  3.27229E-16  1.16856E+01  2.22755E-08  1.0E-07
  1.000E-02  7.61544E-09  3.27229E-16  1.16856E+01  2.28467E-08  1.0E-07
  1.250E-02  1.18991E-08  3.27229E-16  1.16855E+01  2.85584E-08  1.0E-07
  1.500E-02  1.71347E-08  3.27228E-16  1.16855E+01  3.42701E-08  1.0E-07
  1.750E-02  2.33223E-08  3.27227E-16  1.16855E+01  3.99818E-08  1.0E-07
  2.000E-02  3.04617E-08  3.27227E-16  1.16855E+01  4.56935E-08  1.0E-07
  2.250E-02  3.85531E-08  3.27226E-16  1.16855E+01  5.14052E-08  1.0E-07
  2.500E-02  4.75965E-08  3.27225E-16  1.16854E+01  5.71170E-08  1.0E-07
  2.750E-02  5.75917E-08  3.27224E-16  1.16854E+01  6.28287E-08  1.0E-07
  3.000E-02  6.85389E-08  3.27223E-16  1.16853E+01  6.85405E-08  1.0E-07
  3.250E-02  8.04380E-08  3.27222E-16  1.16853E+01  7.42523E-08  1.0E-07
  3.500E-02  9.32891E-08  3.27221E-16  1.16853E+01  7.99641E-08  1.0E-07
  3.750E-02  1.07092E-07  3.27219E-16  1.16852E+01  8.56760E-08  1.0E-07
  4.000E-02  1.21847E-07  3.27218E-16  1.16852E+01  9.13879E-08  1.0E-07
  4.250E-02  1.37554E-07  3.27216E-16  1.16851E+01  9.70998E-08  1.0E-07
  4.500E-02  1.54213E-07  3.27215E-16  1.16851E+01  1.02812E-07  1.0E-07
  4.750E-02  1.71823E-07  3.27213E-16  1.16850E+01  1.08524E-07  1.0E-07
  5.000E-02  1.90386E-07  3.27211E-16  1.16849E+01  1.14236E-07  1.0E-07
  5.250E-02  2.09900E-07  3.27210E-16  1.16849E+01  1.19948E-07  1.0E-07
  5.500E-02  2.30367E-07  3.27208E-16  1.16848E+01  1.25660E-07  1.0E-07
  5.750E-02  2.51785E-07  3.27206E-16  1.16847E+01  1.31372E-07  1.0E-07
  6.000E-02  2.74156E-07  3.27203E-16  1.16846E+01  1.37084E-07  1.0E-07
  6.250E-02  2.97478E-07  3.27201E-16  1.16846E+01  1.42796E-07  1.0E-07
  6.500E-02  3.21752E-07  3.27199E-16  1.16845E+01  1.48508E-07  1.0E-07
  6.750E-02  3.46978E-07  3.27196E-16  1.16844E+01  1.54221E-07  1.0E-07
  7.000E-02  3.73156E-07  3.27194E-16  1.16843E+01  1.59933E-07  1.0E-07
  7.250E-02  4.00286E-07  3.27191E-16  1.16842E+01  1.65645E-07  1.0E-07
  7.500E-02  4.28368E-07  3.27189E-16  1.16841E+01  1.71358E-07  1.0E-07
  7.750E-02  4.57402E-07  3.27186E-16  1.16840E+01  1.77070E-07  1.0E-07
  8.000E-02  4.87388E-07  3.27183E-16  1.16839E+01  1.82783E-07  1.0E-07
  8.250E-02  5.18325E-07  3.27180E-16  1.16838E+01  1.88495E-07  1.0E-07
  8.500E-02  5.50215E-07  3.27177E-16  1.16837E+01  1.94208E-07  1.0E-07
  8.750E-02  5.83057E-07  3.27174E-16  1.16836E+01  1.99921E-07  1.0E-07
  9.000E-02  6.16850E-07  3.27171E-16  1.16835E+01  2.05634E-07  1.0E-07
  9.250E-02  6.51596E-07  3.27167E-16  1.16834E+01  2.11346E-07  1.0E-07
  9.500E-02  6.87293E-07  3.27164E-16  1.16832E+01  2.17059E-07  1.0E-07
  9.750E-02  7.23942E-07  3.27160E-16  1.16831E+01  2.22772E-07  1.0E-07
  1.000E-01  7.61543E-07  3.27157E-16  1.16830E+01  2.28485E-07  1.0E-07
  1.250E-01  1.18991E-06  3.27116E-16  1.16815E+01  2.85620E-07  1.0E-07
  1.500E-01  1.71347E-06  3.27065E-16  1.16797E+01  3.42763E-07  1.0E-07
  1.750E-01  2.33223E-06  3.27006E-16  1.16776E+01  3.99916E-07  1.0E-07
  2.000E-01  3.04617E-06  3.26938E-16  1.16752E+01  4.57082E-07  1.0E-07
  2.250E-01  3.85531E-06  3.26860E-16  1.16724E+01  5.14262E-07  1.0E-07
  2.500E-01  4.75964E-06  3.26774E-16  1.16693E+01  5.71457E-07  1.0E-07
  2.750E-01  5.75916E-06  3.26678E-16  1.16659E+01  6.28670E-07  1.0E-07
  3.000E-01  6.85388E-06  3.26573E-16  1.16621E+01  6.85902E-07  1.0E-07
  3.250E-01  8.04378E-06  3.26459E-16  1.16581E+01  7.43155E-07  1.0E-07
  3.500E-01  9.32888E-06  3.26337E-16  1.16537E+01  8.00430E-07  1.0E-07
  3.750E-01  1.07092E-05  3.26205E-16  1.16490E+01  8.57730E-07  1.0E-07
  4.000E-01  1.21846E-05  3.26064E-16  1.16440E+01  9.15056E-07  1.0E-07
  4.250E-01  1.37553E-05  3.25914E-16  1.16386E+01  9.72410E-07  1.0E-07
  4.500E-01  1.54212E-05  3.25755E-16  1.16329E+01  1.02979E-06  1.0E-07
  4.750E-01  1.71822E-05  3.25587E-16  1.16269E+01  1.08721E-06  1.0E-07
  5.000E-01  1.90385E-05  3.25411E-16  1.16206E+01  1.14466E-06  1.0E-07
  5.250E-01  2.09899E-05  3.25225E-16  1.16140E+01  1.20214E-06  1.0E-07
  5.500E-01  2.30365E-05  3.25031E-16  1.16071E+01  1.25966E-06  1.0E-07
  5.750E-01  2.51783E-05  3.24827E-16  1.15998E+01  1.31722E-06  1.0E-07
  6.000E-01  2.74153E-05  3.24615E-16  1.15922E+01  1.37481E-06  1.0E-07
  6.250E-01  2.97475E-05  3.24394E-16  1.15843E+01  1.43245E-06  1.0E-07
  6.500E-01  3.21749E-05  3.24164E-16  1.15761E+01  1.49013E-06  1.0E-07
  6.750E-01  3.46974E-05  3.23926E-16  1.15676E+01  1.54786E-06  1.0E-07
  7.000E-01  3.73152E-05  3.23678E-16  1.15588E+01  1.60564E-06  1.0E-07
  7.250E-01  4.00281E-05  3.23422E-16  1.15496E+01  1.66346E-06  1.0E-07
  7.500E-01  4.28362E-05  3.23157E-16  1.15402E+01  1.72133E-06  1.0E-07
  7.750E-01  4.57395E-05  3.22884E-16  1.15304E+01  1.77926E-06  1.0E-07
  8.000E-01  4.87380E-05  3.22602E-16  1.15203E+01  1.83724E-06  1.0E-07
  8.250E-01  5.18317E-05  3.22312E-16  1.15100E+01  1.89527E-06  1.0E-07
  8.500E-01  5.50205E-05  3.22013E-16  1.14993E+01  1.95336E-06  1.0E-07
  8.750E-01  5.83045E-05  3.21705E-16  1.14883E+01  2.01151E-06  1.0E-07
  9.000E-01  6.16838E-05  3.21389E-16  1.14770E+01  2.06972E-06  1.0E-07
  9.250E-01  6.51582E-05  3.21065E-16  1.14654E+01  2.12800E-06  1.0E-07
  9.500E-01  6.87277E-05  3.20732E-16  1.14535E+01  2.18633E-06  1.0E-07
  9.750E-01  7.23925E-05  3.20390E-16  1.14414E+01  2.24474E-06  1.0E-07
  1.000E+00  7.61524E-05  3.20041E-16  1.14289E+01  2.30321E-06  1.0E-07
  1.100E+00  9.21439E-05  3.18560E-16  1.13760E+01  2.53780E-06  1.0E-07
  1.200E+00  1.09658E-04  3.16950E-16  1.13185E+01  2.77359E-06  1.0E-07
  1.300E+00  1.28695E-04  3.15214E-16  1.12565E+01  3.01071E-06  1.0E-07
  1.400E+00  1.49255E-04  3.13354E-16  1.11901E+01  3.24926E-06  1.0E-07
  1.500E+00  1.71338E-04  3.11374E-16  1.11194E+01  3.48933E-06  1.0E-07
  1.600E+00  1.94942E-04  3.09277E-16  1.10445E+01  3.73104E-06  1.0E-07
  1.700E+00  2.20070E-04  3.07068E-16  1.09656E+01  3.97449E-06  1.0E-07
  1.800E+00  2.46720E-04  3.04749E-16  1.08828E+01  4.21978E-06  1.0E-07
  1.900E+00  2.74892E-04  3.02326E-16  1.07963E+01  4.46701E-06  1.0E-07
  2.000E+00  3.04586E-04  2.99803E-16  1.07061E+01  4.71628E-06  1.0E-07
  2.100E+00  3.35803E-04  2.97182E-16  1.06126E+01  4.96769E-06  1.0E-07
  2.200E+00  3.68542E-04  2.94470E-16  1.05157E+01  5.22133E-06  1.0E-07
  2.300E+00  4.02802E-04  2.91670E-16  1.04157E+01  5.47731E-06  1.0E-07
  2.400E+00  4.38585E-04  2.88788E-16  1.03128E+01  5.73571E-06  1.0E-07
  2.500E+00  4.75889E-04  2.85826E-16  1.02070E+01  5.99663E-06  1.0E-07
  2.600E+00  5.14715E-04  2.82791E-16  1.00986E+01  6.26015E-06  1.0E-07
  2.700E+00  5.55063E-04  2.79686E-16  9.98778E+00  6.52637E-06  1.0E-07
  2.800E+00  5.96931E-04  2.76517E-16  9.87461E+00  6.79538E-06  1.0E-07
  2.900E+00  6.40321E-04  2.73288E-16  9.75930E+00  7.06725E-06  1.0E-07
  3.000E+00  6.85233E-04  2.70004E-16  9.64200E+00  7.34207E-06  1.0E-07
  3.100E+00  7.31665E-04  2.66668E-16  9.52290E+00  7.61992E-06  1.0E-07
  3.200E+00  7.79618E-04  2.63287E-16  9.40214E+00  7.90087E-06  1.0E-07
  3.300E+00  8.29092E-04  2.59864E-16  9.27990E+00  8.18501E-06  1.0E-07
  3.400E+00  8.80086E-04  2.56403E-16  9.15632E+00  8.47241E-06  1.0E-07
  3.500E+00  9.32601E-04  2.52910E-16  9.03158E+00  8.76314E-06  1.0E-07
  3.600E+00  9.86636E-04  2.49388E-16  8.90581E+00  9.05727E-06  1.0E-07
  3.700E+00  1.04219E-03  2.45842E-16  8.77917E+00  9.35486E-06  1.0E-07
  3.800E+00  1.09927E-03  2.42275E-16  8.65181E+00  9.65598E-06  1.0E-07
  3.900E+00  1.15786E-03  2.38693E-16  8.52387E+00  9.96069E-06  1.0E-07
  4.000E+00  1.21797E-03  2.35098E-16  8.39549E+00  1.02691E-05  1.0E-07
  4.100E+00  1.27961E-03  2.31494E-16  8.26680E+00  1.05811E-05  1.0E-07
  4.200E+00  1.34276E-03  2.27886E-16  8.13794E+00  1.08969E-05  1.0E-07
  4.300E+00  1.40743E-03  2.24276E-16  8.00903E+00  1.12166E-05  1.0E-07
  4.400E+00  1.47362E-03  2.20668E-16  7.88020E+00  1.15400E-05  1.0E-07
  4.500E+00  1.54133E-03  2.17066E-16  7.75155E+00  1.18674E-05  1.0E-07
  4.600E+00  1.61056E-03  2.13472E-16  7.62321E+00  1.21987E-05  1.0E-07
  4.700E+00  1.68131E-03  2.09889E-16  7.49527E+00  1.25340E-05  1.0E-07
  4.800E+00  1.75357E-03  2.06321E-16  7.36785E+00  1.28733E-05  1.0E-07
  4.900E+00  1.82735E-03  2.02769E-16  7.24103E+00  1.32166E-05  1.0E-07
  5.000E+00  1.90265E-03  1.99238E-16  7.11491E+00  1.35640E-05  1.0E-07
  5.100E+00  1.97947E-03  1.95728E-16  6.98958E+00  1.39155E-05  1.0E-07
  5.200E+00  2.05780E-03  1.92243E-16  6.86512E+00  1.42712E-05  1.0E-07
  5.300E+00  2.13765E-03  1.88784E-16  6.74161E+00  1.46309E-05  1.0E-07
  5.400E+00  2.21902E-03  1.85354E-16  6.61912E+00  1.49948E-05  1.0E-07
  5.500E+00  2.30190E-03  1.81954E-16  6.49771E+00  1.53629E-05  1.0E-07
  5.600E+00  2.38630E-03  1.78587E-16  6.37745E+00  1.57352E-05  1.0E-07
  5.700E+00  2.47222E-03  1.75253E-16  6.25841E+00  1.61116E-05  1.0E-07
  5.800E+00  2.55965E-03  1.71955E-16  6.14062E+00  1.64922E-05  1.0E-07
  5.900E+00  2.64859E-03  1.68694E-16  6.02415E+00  1.68770E-05  1.0E-07
  6.000E+00  2.73905E-03  1.65470E-16  5.90904E+00  1.72660E-05  1.0E-07
  6.100E+00  2.83103E-03  1.62286E-16  5.79533E+00  1.76591E-05  1.0E-07
  6.200E+00  2.92452E-03  1.59142E-16  5.68306E+00  1.80564E-05  1.0E-07
  6.300E+00  3.01952E-03  1.56039E-16  5.57225E+00  1.84578E-05  1.0E-07
  6.400E+00  3.11604E-03  1.52978E-16  5.46295E+00  1.88633E-05  1.0E-07
  6.500E+00  3.21407E-03  1.49960E-16  5.35517E+00  1.92729E-05  1.0E-07
  6.600E+00  3.31362E-03  1.46985E-16  5.24895E+00  1.96866E-05  1.0E-07
  6.700E+00  3.41468E-03  1.44055E-16  5.14429E+00  2.01044E-05  1.0E-07
  6.800E+00  3.51725E-03  1.41169E-16  5.04122E+00  2.05261E-05  1.0E-07
  6.900E+00  3.62133E-03  1.38327E-16  4.93975E+00  2.09518E-05  1.0E-07
  7.000E+00  3.72692E-03  1.35531E-16  4.83990E+00  2.13815E-05  1.0E-07
  7.100E+00  3.83403E-03  1.32780E-16  4.74166E+00  2.18150E-05  1.0E-07
  7.200E+00  3.94265E-03  1.30075E-16  4.64505E+00  2.22524E-05  1.0E-07
  7.300E+00  4.05278E-03  1.27415E-16  4.55007E+00  2.26936E-05  1.0E-07
  7.400E+00  4.16442E-03  1.24801E-16  4.45672E+00  2.31385E-05  1.0E-07
  7.500E+00  4.27757E-03  1.22232E-16  4.36499E+00  2.35871E-05  1.0E-07
  7.600E+00  4.39223E-03  1.19709E-16  4.27490E+00  2.40393E-05  1.0E-07
  7.700E+00  4.50840E-03  1.17232E-16  4.18642E+00  2.44950E-05  1.0E-07
  7.800E+00  4.62608E-03  1.14799E-16  4.09956E+00  2.49543E-05  1.0E-07
  7.900E+00  4.74527E-03  1.12412E-16  4.01431E+00  2.54169E-05  1.0E-07
  8.000E+00  4.86597E-03  1.10070E-16  3.93066E+00  2.58829E-05  1.0E-07
  8.100E+00  4.98817E-03  1.07771E-16  3.84859E+00  2.63522E-05  1.0E-07
  8.200E+00  5.11188E-03  1.05517E-16  3.76810E+00  2.68246E-05  1.0E-07
  8.300E+00  5.23711E-03  1.03307E-16  3.68916E+00  2.73001E-05  1.0E-07
  8.400E+00  5.36383E-03  1.01140E-16  3.61178E+00  2.77786E-05  1.0E-07
  8.500E+00  5.49207E-03  9.90159E-17  3.53592E+00  2.82600E-05  1.0E-07
  8.600E+00  5.62181E-03  9.69342E-17  3.46158E+00  2.87443E-05  1.0E-07
  8.700E+00  5.75306E-03  9.48943E-17  3.38874E+00  2.92312E-05  1.0E-07
  8.800E+00  5.88581E-03  9.28960E-17  3.31738E+00  2.97208E-05  1.0E-07
  8.900E+00  6.02007E-03  9.09385E-17  3.24747E+00  3.02128E-05  1.0E-07
  9.000E+00  6.15583E-03  8.90214E-17  3.17901E+00  3.07073E-05  1.0E-07
  9.100E+00  6.29310E-03  8.71442E-17  3.11197E+00  3.12040E-05  1.0E-07
  9.200E+00  6.43187E-03  8.53062E-17  3.04634E+00  3.17029E-05  1.0E-07
  9.300E+00  6.57214E-03  8.35068E-17  2.98208E+00  3.22039E-05  1.0E-07
  9.400E+00  6.71392E-03  8.17456E-17  2.91919E+00  3.27068E-05  1.0E-07
  9.500E+00  6.85720E-03  8.00219E-17  2.85763E+00  3.32114E-05  1.0E-07
  9.600E+00  7.00198E-03  7.83351E-17  2.79740E+00  3.37178E-05  1.0E-07
  9.700E+00  7.14827E-03  7.66846E-17  2.73846E+00  3.42257E-05  1.0E-07
  9.800E+00  7.29605E-03  7.50697E-17  2.68079E+00  3.47351E-05  1.0E-07
  9.900E+00  7.44534E-03  7.34900E-17  2.62438E+00  3.52457E-05  1.0E-07
  1.000E+01  7.59612E-03  7.19447E-17  2.56919E+00  3.57574E-05  1.0E-07
  1.025E+01  7.97965E-03  6.82281E-17  2.43647E+00  3.70408E-05  1.0E-07
  1.050E+01  8.37255E-03  6.47135E-17  2.31096E+00  3.83282E-05  1.0E-07
  1.075E+01  8.77480E-03  6.13911E-17  2.19232E+00  3.96172E-05  1.0E-07
  1.100E+01  9.18641E-03  5.82517E-17  2.08020E+00  4.09054E-05  1.0E-07
  1.125E+01  9.60736E-03  5.52859E-17  1.97430E+00  4.21902E-05  1.0E-07
  1.150E+01  1.00376E-02  5.24849E-17  1.87427E+00  4.34690E-05  1.0E-07
  1.175E+01  1.04773E-02  4.98398E-17  1.77981E+00  4.47392E-05  1.0E-07
  1.200E+01  1.09262E-02  4.73423E-17  1.69062E+00  4.59980E-05  1.0E-07
  1.225E+01  1.13844E-02  4.49843E-17  1.60642E+00  4.72426E-05  1.0E-07
  1.250E+01  1.18520E-02  4.27581E-17  1.52692E+00  4.84702E-05  1.0E-07
  1.275E+01  1.23288E-02  4.06562E-17  1.45186E+00  4.96779E-05  1.0E-07
  1.300E+01  1.28150E-02  3.86715E-17  1.38098E+00  5.08627E-05  1.0E-07
  1.325E+01  1.33104E-02  3.67973E-17  1.31406E+00  5.20218E-05  1.0E-07
  1.350E+01  1.38150E-02  3.50273E-17  1.25085E+00  5.31522E-05  1.0E-07
  1.375E+01  1.43290E-02  3.33553E-17  1.19114E+00  5.42508E-05  1.0E-07
  1.400E+01  1.48521E-02  3.17757E-17  1.13473E+00  5.53146E-05  1.0E-07
  1.425E+01  1.53845E-02  3.02831E-17  1.08143E+00  5.63407E-05  1.0E-07
  1.450E+01  1.59262E-02  2.88722E-17  1.03105E+00  5.73260E-05  1.0E-07
  1.475E+01  1.64770E-02  2.75384E-17  9.83415E-01  5.82674E-05  1.0E-07
