 #
 # Subroutine ELSEPA. Elastic scattering of electrons and positrons
 #                    by neutral atoms and positive ions
 #
 # Projectile: electron
 # Kinetic energy = 9.00000E+01 eV = 3.30744E+00 a.u.
 #
 #  ***  WARNING: Energy is too low.
 #                The reliability of the results is questionable.
 #
 # Element:  O,  Z =   8,  atomic weight = 1.59994E+01 g/mol
 #
 # Nuclear model: Fermi distribution
 #                Average radius = 2.69620E-13 cm
 #                Skin thickness = 5.46000E-14 cm
 #
 # Number of electrons =  8
 #
 # Electron density: analytical DHFS model
 #                   A1 =  6.25130D-02 ,   ALPHA1 = 1.48233D+01
 #                   A2 =  9.37487D-01 ,   ALPHA2 = 2.04035D+00
 #                   A3 =  0.00000D+00 ,   ALPHA3 = 1.00000D+00
 #                   Volume integral = 8.00000E+00
 #
 # Muffin-tin model: Rmt = 3.22000E-08 cm
 #
 # Furness-McCarthy exchange potential
 #
 # Total elastic cross section = 2.56833E-16 cm**2 = 9.17168E+00 a0**2
 # 1st transport cross section = 1.71896E-16 cm**2 = 6.13852E+00 a0**2
 # 2nd transport cross section = 1.33719E-16 cm**2 = 4.77520E+00 a0**2
 #
 #
 # Differential cross section:                       MU=(1-COS(THETA))/2
 #
 #  THETA        MU          DCS          DCS        Sherman      error
 #  (deg)                 (cm**2/sr)   (a0**2/sr)    function
 #----------------------------------------------------------------------
  0.000E+00  0.00000E+00  1.91161E-16  6.82648E+00  0.00000E+00  1.0E-07
  1.000E-04  7.61557E-13  1.91161E-16  6.82648E+00  2.65856E-10  1.0E-07
  1.250E-04  1.18994E-12  1.91161E-16  6.82648E+00  3.32320E-10  1.0E-07
  1.500E-04  1.71346E-12  1.91161E-16  6.82648E+00  3.98784E-10  1.0E-07
  1.750E-04  2.33225E-12  1.91161E-16  6.82648E+00  4.65248E-10  1.0E-07
  2.000E-04  3.04617E-12  1.91161E-16  6.82648E+00  5.31712E-10  1.0E-07
  2.250E-04  3.85530E-12  1.91161E-16  6.82648E+00  5.98176E-10  1.0E-07
  2.500E-04  4.75964E-12  1.91161E-16  6.82648E+00  6.64640E-10  1.0E-07
  2.750E-04  5.75917E-12  1.91161E-16  6.82648E+00  7.31104E-10  1.0E-07
  3.000E-04  6.85391E-12  1.91161E-16  6.82648E+00  7.97568E-10  1.0E-07
  3.250E-04  8.04379E-12  1.91161E-16  6.82648E+00  8.64032E-10  1.0E-07
  3.500E-04  9.32893E-12  1.91161E-16  6.82648E+00  9.30496E-10  1.0E-07
  3.750E-04  1.07092E-11  1.91161E-16  6.82648E+00  9.96960E-10  1.0E-07
  4.000E-04  1.21847E-11  1.91161E-16  6.82648E+00  1.06342E-09  1.0E-07
  4.250E-04  1.37554E-11  1.91161E-16  6.82648E+00  1.12989E-09  1.0E-07
  4.500E-04  1.54213E-11  1.91161E-16  6.82648E+00  1.19635E-09  1.0E-07
  4.750E-04  1.71823E-11  1.91161E-16  6.82648E+00  1.26282E-09  1.0E-07
  5.000E-04  1.90386E-11  1.91161E-16  6.82648E+00  1.32928E-09  1.0E-07
  5.250E-04  2.09900E-11  1.91161E-16  6.82648E+00  1.39574E-09  1.0E-07
  5.500E-04  2.30367E-11  1.91161E-16  6.82648E+00  1.46221E-09  1.0E-07
  5.750E-04  2.51785E-11  1.91161E-16  6.82648E+00  1.52867E-09  1.0E-07
  6.000E-04  2.74156E-11  1.91161E-16  6.82648E+00  1.59514E-09  1.0E-07
  6.250E-04  2.97478E-11  1.91161E-16  6.82648E+00  1.66160E-09  1.0E-07
  6.500E-04  3.21752E-11  1.91161E-16  6.82648E+00  1.72806E-09  1.0E-07
  6.750E-04  3.46979E-11  1.91161E-16  6.82648E+00  1.79453E-09  1.0E-07
  7.000E-04  3.73157E-11  1.91161E-16  6.82648E+00  1.86099E-09  1.0E-07
  7.250E-04  4.00286E-11  1.91161E-16  6.82648E+00  1.92746E-09  1.0E-07
  7.500E-04  4.28368E-11  1.91161E-16  6.82648E+00  1.99392E-09  1.0E-07
  7.750E-04  4.57402E-11  1.91161E-16  6.82648E+00  2.06038E-09  1.0E-07
  8.000E-04  4.87388E-11  1.91161E-16  6.82648E+00  2.12685E-09  1.0E-07
  8.250E-04  5.18325E-11  1.91161E-16  6.82648E+00  2.19331E-09  1.0E-07
  8.500E-04  5.50215E-11  1.91161E-16  6.82648E+00  2.25978E-09  1.0E-07
  8.750E-04  5.83057E-11  1.91161E-16  6.82648E+00  2.32624E-09  1.0E-07
  9.000E-04  6.16850E-11  1.91161E-16  6.82648E+00  2.39270E-09  1.0E-07
  9.250E-04  6.51595E-11  1.91161E-16  6.82648E+00  2.45917E-09  1.0E-07
  9.500E-04  6.87293E-11  1.91161E-16  6.82648E+00  2.52563E-09  1.0E-07
  9.750E-04  7.23943E-11  1.91161E-16  6.82648E+00  2.59210E-09  1.0E-07
  1.000E-03  7.61544E-11  1.91161E-16  6.82648E+00  2.65856E-09  1.0E-07
  1.250E-03  1.18991E-10  1.91161E-16  6.82648E+00  3.32320E-09  1.0E-07
  1.500E-03  1.71347E-10  1.91161E-16  6.82648E+00  3.98784E-09  1.0E-07
  1.750E-03  2.33223E-10  1.91161E-16  6.82648E+00  4.65248E-09  1.0E-07
  2.000E-03  3.04617E-10  1.91161E-16  6.82648E+00  5.31712E-09  1.0E-07
  2.250E-03  3.85531E-10  1.91161E-16  6.82647E+00  5.98176E-09  1.0E-07
  2.500E-03  4.75965E-10  1.91161E-16  6.82647E+00  6.64640E-09  1.0E-07
  2.750E-03  5.75917E-10  1.91161E-16  6.82647E+00  7.31104E-09  1.0E-07
  3.000E-03  6.85389E-10  1.91161E-16  6.82647E+00  7.97568E-09  1.0E-07
  3.250E-03  8.04380E-10  1.91161E-16  6.82647E+00  8.64032E-09  1.0E-07
  3.500E-03  9.32891E-10  1.91161E-16  6.82647E+00  9.30496E-09  1.0E-07
  3.750E-03  1.07092E-09  1.91161E-16  6.82647E+00  9.96960E-09  1.0E-07
  4.000E-03  1.21847E-09  1.91161E-16  6.82647E+00  1.06342E-08  1.0E-07
  4.250E-03  1.37554E-09  1.91161E-16  6.82647E+00  1.12989E-08  1.0E-07
  4.500E-03  1.54213E-09  1.91161E-16  6.82647E+00  1.19635E-08  1.0E-07
  4.750E-03  1.71823E-09  1.91161E-16  6.82647E+00  1.26282E-08  1.0E-07
  5.000E-03  1.90386E-09  1.91161E-16  6.82647E+00  1.32928E-08  1.0E-07
  5.250E-03  2.09900E-09  1.91161E-16  6.82647E+00  1.39574E-08  1.0E-07
  5.500E-03  2.30367E-09  1.91161E-16  6.82647E+00  1.46221E-08  1.0E-07
  5.750E-03  2.51785E-09  1.91161E-16  6.82647E+00  1.52867E-08  1.0E-07
  6.000E-03  2.74156E-09  1.91161E-16  6.82647E+00  1.59514E-08  1.0E-07
  6.250E-03  2.97478E-09  1.91161E-16  6.82647E+00  1.66160E-08  1.0E-07
  6.500E-03  3.21752E-09  1.91161E-16  6.82647E+00  1.72806E-08  1.0E-07
  6.750E-03  3.46978E-09  1.91161E-16  6.82647E+00  1.79453E-08  1.0E-07
  7.000E-03  3.73156E-09  1.91161E-16  6.82647E+00  1.86099E-08  1.0E-07
  7.250E-03  4.00286E-09  1.91161E-16  6.82647E+00  1.92746E-08  1.0E-07
  7.500E-03  4.28368E-09  1.91161E-16  6.82647E+00  1.99392E-08  1.0E-07
  7.750E-03  4.57402E-09  1.91161E-16  6.82647E+00  2.06038E-08  1.0E-07
  8.000E-03  4.87388E-09  1.91161E-16  6.82647E+00  2.12685E-08  1.0E-07
  8.250E-03  5.18326E-09  1.91161E-16  6.82647E+00  2.19331E-08  1.0E-07
  8.500E-03  5.50215E-09  1.91161E-16  6.82647E+00  2.25978E-08  1.0E-07
  8.750E-03  5.83057E-09  1.91161E-16  6.82647E+00  2.32624E-08  1.0E-07
  9.000E-03  6.16850E-09  1.91161E-16  6.82647E+00  2.39270E-08  1.0E-07
  9.250E-03  6.51596E-09  1.91161E-16  6.82647E+00  2.45917E-08  1.0E-07
  9.500E-03  6.87293E-09  1.91161E-16  6.82647E+00  2.52563E-08  1.0E-07
  9.750E-03  7.23942E-09  1.91161E-16  6.82647E+00  2.59210E-08  1.0E-07
  1.000E-02  7.61544E-09  1.91161E-16  6.82647E+00  2.65856E-08  1.0E-07
  1.250E-02  1.18991E-08  1.91161E-16  6.82647E+00  3.32320E-08  1.0E-07
  1.500E-02  1.71347E-08  1.91161E-16  6.82647E+00  3.98784E-08  1.0E-07
  1.750E-02  2.33223E-08  1.91161E-16  6.82647E+00  4.65248E-08  1.0E-07
  2.000E-02  3.04617E-08  1.91161E-16  6.82647E+00  5.31712E-08  1.0E-07
  2.250E-02  3.85531E-08  1.91161E-16  6.82647E+00  5.98176E-08  1.0E-07
  2.500E-02  4.75965E-08  1.91161E-16  6.82647E+00  6.64641E-08  1.0E-07
  2.750E-02  5.75917E-08  1.91161E-16  6.82647E+00  7.31105E-08  1.0E-07
  3.000E-02  6.85389E-08  1.91161E-16  6.82647E+00  7.97569E-08  1.0E-07
  3.250E-02  8.04380E-08  1.91160E-16  6.82646E+00  8.64034E-08  1.0E-07
  3.500E-02  9.32891E-08  1.91160E-16  6.82646E+00  9.30498E-08  1.0E-07
  3.750E-02  1.07092E-07  1.91160E-16  6.82646E+00  9.96962E-08  1.0E-07
  4.000E-02  1.21847E-07  1.91160E-16  6.82646E+00  1.06343E-07  1.0E-07
  4.250E-02  1.37554E-07  1.91160E-16  6.82646E+00  1.12989E-07  1.0E-07
  4.500E-02  1.54213E-07  1.91160E-16  6.82646E+00  1.19636E-07  1.0E-07
  4.750E-02  1.71823E-07  1.91160E-16  6.82645E+00  1.26282E-07  1.0E-07
  5.000E-02  1.90386E-07  1.91160E-16  6.82645E+00  1.32929E-07  1.0E-07
  5.250E-02  2.09900E-07  1.91160E-16  6.82645E+00  1.39575E-07  1.0E-07
  5.500E-02  2.30367E-07  1.91160E-16  6.82645E+00  1.46222E-07  1.0E-07
  5.750E-02  2.51785E-07  1.91160E-16  6.82644E+00  1.52868E-07  1.0E-07
  6.000E-02  2.74156E-07  1.91160E-16  6.82644E+00  1.59515E-07  1.0E-07
  6.250E-02  2.97478E-07  1.91160E-16  6.82644E+00  1.66161E-07  1.0E-07
  6.500E-02  3.21752E-07  1.91160E-16  6.82643E+00  1.72808E-07  1.0E-07
  6.750E-02  3.46978E-07  1.91160E-16  6.82643E+00  1.79454E-07  1.0E-07
  7.000E-02  3.73156E-07  1.91159E-16  6.82643E+00  1.86101E-07  1.0E-07
  7.250E-02  4.00286E-07  1.91159E-16  6.82642E+00  1.92747E-07  1.0E-07
  7.500E-02  4.28368E-07  1.91159E-16  6.82642E+00  1.99394E-07  1.0E-07
  7.750E-02  4.57402E-07  1.91159E-16  6.82642E+00  2.06041E-07  1.0E-07
  8.000E-02  4.87388E-07  1.91159E-16  6.82641E+00  2.12687E-07  1.0E-07
  8.250E-02  5.18325E-07  1.91159E-16  6.82641E+00  2.19334E-07  1.0E-07
  8.500E-02  5.50215E-07  1.91159E-16  6.82640E+00  2.25981E-07  1.0E-07
  8.750E-02  5.83057E-07  1.91159E-16  6.82640E+00  2.32627E-07  1.0E-07
  9.000E-02  6.16850E-07  1.91159E-16  6.82640E+00  2.39274E-07  1.0E-07
  9.250E-02  6.51596E-07  1.91158E-16  6.82639E+00  2.45921E-07  1.0E-07
  9.500E-02  6.87293E-07  1.91158E-16  6.82639E+00  2.52568E-07  1.0E-07
  9.750E-02  7.23942E-07  1.91158E-16  6.82638E+00  2.59214E-07  1.0E-07
  1.000E-01  7.61543E-07  1.91158E-16  6.82638E+00  2.65861E-07  1.0E-07
  1.250E-01  1.18991E-06  1.91156E-16  6.82632E+00  3.32330E-07  1.0E-07
  1.500E-01  1.71347E-06  1.91155E-16  6.82625E+00  3.98801E-07  1.0E-07
  1.750E-01  2.33223E-06  1.91152E-16  6.82617E+00  4.65275E-07  1.0E-07
  2.000E-01  3.04617E-06  1.91150E-16  6.82608E+00  5.31753E-07  1.0E-07
  2.250E-01  3.85531E-06  1.91147E-16  6.82598E+00  5.98234E-07  1.0E-07
  2.500E-01  4.75964E-06  1.91144E-16  6.82586E+00  6.64720E-07  1.0E-07
  2.750E-01  5.75916E-06  1.91140E-16  6.82573E+00  7.31210E-07  1.0E-07
  3.000E-01  6.85388E-06  1.91136E-16  6.82559E+00  7.97706E-07  1.0E-07
  3.250E-01  8.04378E-06  1.91132E-16  6.82544E+00  8.64207E-07  1.0E-07
  3.500E-01  9.32888E-06  1.91127E-16  6.82527E+00  9.30715E-07  1.0E-07
  3.750E-01  1.07092E-05  1.91122E-16  6.82510E+00  9.97229E-07  1.0E-07
  4.000E-01  1.21846E-05  1.91117E-16  6.82491E+00  1.06375E-06  1.0E-07
  4.250E-01  1.37553E-05  1.91111E-16  6.82470E+00  1.13028E-06  1.0E-07
  4.500E-01  1.54212E-05  1.91105E-16  6.82449E+00  1.19682E-06  1.0E-07
  4.750E-01  1.71822E-05  1.91099E-16  6.82426E+00  1.26336E-06  1.0E-07
  5.000E-01  1.90385E-05  1.91092E-16  6.82402E+00  1.32992E-06  1.0E-07
  5.250E-01  2.09899E-05  1.91085E-16  6.82377E+00  1.39648E-06  1.0E-07
  5.500E-01  2.30365E-05  1.91078E-16  6.82351E+00  1.46306E-06  1.0E-07
  5.750E-01  2.51783E-05  1.91070E-16  6.82323E+00  1.52964E-06  1.0E-07
  6.000E-01  2.74153E-05  1.91062E-16  6.82295E+00  1.59624E-06  1.0E-07
  6.250E-01  2.97475E-05  1.91054E-16  6.82265E+00  1.66285E-06  1.0E-07
  6.500E-01  3.21749E-05  1.91045E-16  6.82233E+00  1.72947E-06  1.0E-07
  6.750E-01  3.46974E-05  1.91036E-16  6.82201E+00  1.79610E-06  1.0E-07
  7.000E-01  3.73152E-05  1.91026E-16  6.82167E+00  1.86274E-06  1.0E-07
  7.250E-01  4.00281E-05  1.91017E-16  6.82132E+00  1.92940E-06  1.0E-07
  7.500E-01  4.28362E-05  1.91006E-16  6.82096E+00  1.99608E-06  1.0E-07
  7.750E-01  4.57395E-05  1.90996E-16  6.82059E+00  2.06276E-06  1.0E-07
  8.000E-01  4.87380E-05  1.90985E-16  6.82020E+00  2.12946E-06  1.0E-07
  8.250E-01  5.18317E-05  1.90974E-16  6.81981E+00  2.19618E-06  1.0E-07
  8.500E-01  5.50205E-05  1.90963E-16  6.81940E+00  2.26291E-06  1.0E-07
  8.750E-01  5.83045E-05  1.90951E-16  6.81897E+00  2.32966E-06  1.0E-07
  9.000E-01  6.16838E-05  1.90939E-16  6.81854E+00  2.39643E-06  1.0E-07
  9.250E-01  6.51582E-05  1.90926E-16  6.81809E+00  2.46321E-06  1.0E-07
  9.500E-01  6.87277E-05  1.90913E-16  6.81764E+00  2.53001E-06  1.0E-07
  9.750E-01  7.23925E-05  1.90900E-16  6.81716E+00  2.59683E-06  1.0E-07
  1.000E+00  7.61524E-05  1.90887E-16  6.81668E+00  2.66367E-06  1.0E-07
  1.100E+00  9.21439E-05  1.90829E-16  6.81463E+00  2.93122E-06  1.0E-07
  1.200E+00  1.09658E-04  1.90766E-16  6.81238E+00  3.19910E-06  1.0E-07
  1.300E+00  1.28695E-04  1.90698E-16  6.80993E+00  3.46736E-06  1.0E-07
  1.400E+00  1.49255E-04  1.90624E-16  6.80730E+00  3.73601E-06  1.0E-07
  1.500E+00  1.71338E-04  1.90544E-16  6.80446E+00  4.00510E-06  1.0E-07
  1.600E+00  1.94942E-04  1.90460E-16  6.80144E+00  4.27464E-06  1.0E-07
  1.700E+00  2.20070E-04  1.90370E-16  6.79822E+00  4.54468E-06  1.0E-07
  1.800E+00  2.46720E-04  1.90274E-16  6.79481E+00  4.81524E-06  1.0E-07
  1.900E+00  2.74892E-04  1.90173E-16  6.79120E+00  5.08636E-06  1.0E-07
  2.000E+00  3.04586E-04  1.90067E-16  6.78741E+00  5.35806E-06  1.0E-07
  2.100E+00  3.35803E-04  1.89955E-16  6.78342E+00  5.63038E-06  1.0E-07
  2.200E+00  3.68542E-04  1.89838E-16  6.77924E+00  5.90335E-06  1.0E-07
  2.300E+00  4.02802E-04  1.89716E-16  6.77487E+00  6.17699E-06  1.0E-07
  2.400E+00  4.38585E-04  1.89588E-16  6.77031E+00  6.45135E-06  1.0E-07
  2.500E+00  4.75889E-04  1.89455E-16  6.76556E+00  6.72645E-06  1.0E-07
  2.600E+00  5.14715E-04  1.89317E-16  6.76062E+00  7.00232E-06  1.0E-07
  2.700E+00  5.55063E-04  1.89173E-16  6.75549E+00  7.27900E-06  1.0E-07
  2.800E+00  5.96931E-04  1.89024E-16  6.75018E+00  7.55652E-06  1.0E-07
  2.900E+00  6.40321E-04  1.88870E-16  6.74467E+00  7.83490E-06  1.0E-07
  3.000E+00  6.85233E-04  1.88711E-16  6.73898E+00  8.11419E-06  1.0E-07
  3.100E+00  7.31665E-04  1.88546E-16  6.73311E+00  8.39440E-06  1.0E-07
  3.200E+00  7.79618E-04  1.88376E-16  6.72704E+00  8.67558E-06  1.0E-07
  3.300E+00  8.29092E-04  1.88201E-16  6.72080E+00  8.95776E-06  1.0E-07
  3.400E+00  8.80086E-04  1.88021E-16  6.71436E+00  9.24097E-06  1.0E-07
  3.500E+00  9.32601E-04  1.87836E-16  6.70775E+00  9.52524E-06  1.0E-07
  3.600E+00  9.86636E-04  1.87646E-16  6.70095E+00  9.81060E-06  1.0E-07
  3.700E+00  1.04219E-03  1.87450E-16  6.69397E+00  1.00971E-05  1.0E-07
  3.800E+00  1.09927E-03  1.87250E-16  6.68681E+00  1.03847E-05  1.0E-07
  3.900E+00  1.15786E-03  1.87044E-16  6.67947E+00  1.06736E-05  1.0E-07
  4.000E+00  1.21797E-03  1.86833E-16  6.67194E+00  1.09636E-05  1.0E-07
  4.100E+00  1.27961E-03  1.86618E-16  6.66424E+00  1.12549E-05  1.0E-07
  4.200E+00  1.34276E-03  1.86397E-16  6.65636E+00  1.15475E-05  1.0E-07
  4.300E+00  1.40743E-03  1.86172E-16  6.64831E+00  1.18415E-05  1.0E-07
  4.400E+00  1.47362E-03  1.85941E-16  6.64007E+00  1.21368E-05  1.0E-07
  4.500E+00  1.54133E-03  1.85706E-16  6.63166E+00  1.24334E-05  1.0E-07
  4.600E+00  1.61056E-03  1.85465E-16  6.62308E+00  1.27315E-05  1.0E-07
  4.700E+00  1.68131E-03  1.85220E-16  6.61432E+00  1.30311E-05  1.0E-07
  4.800E+00  1.75357E-03  1.84970E-16  6.60539E+00  1.33321E-05  1.0E-07
  4.900E+00  1.82735E-03  1.84715E-16  6.59629E+00  1.36347E-05  1.0E-07
  5.000E+00  1.90265E-03  1.84455E-16  6.58702E+00  1.39388E-05  1.0E-07
  5.100E+00  1.97947E-03  1.84191E-16  6.57758E+00  1.42445E-05  1.0E-07
  5.200E+00  2.05780E-03  1.83922E-16  6.56797E+00  1.45519E-05  1.0E-07
  5.300E+00  2.13765E-03  1.83648E-16  6.55819E+00  1.48609E-05  1.0E-07
  5.400E+00  2.21902E-03  1.83370E-16  6.54824E+00  1.51716E-05  1.0E-07
  5.500E+00  2.30190E-03  1.83086E-16  6.53813E+00  1.54840E-05  1.0E-07
  5.600E+00  2.38630E-03  1.82799E-16  6.52786E+00  1.57982E-05  1.0E-07
  5.700E+00  2.47222E-03  1.82506E-16  6.51742E+00  1.61142E-05  1.0E-07
  5.800E+00  2.55965E-03  1.82209E-16  6.50682E+00  1.64321E-05  1.0E-07
  5.900E+00  2.64859E-03  1.81908E-16  6.49606E+00  1.67518E-05  1.0E-07
  6.000E+00  2.73905E-03  1.81602E-16  6.48513E+00  1.70734E-05  1.0E-07
  6.100E+00  2.83103E-03  1.81292E-16  6.47405E+00  1.73969E-05  1.0E-07
  6.200E+00  2.92452E-03  1.80977E-16  6.46281E+00  1.77225E-05  1.0E-07
  6.300E+00  3.01952E-03  1.80658E-16  6.45142E+00  1.80500E-05  1.0E-07
  6.400E+00  3.11604E-03  1.80335E-16  6.43986E+00  1.83796E-05  1.0E-07
  6.500E+00  3.21407E-03  1.80007E-16  6.42816E+00  1.87113E-05  1.0E-07
  6.600E+00  3.31362E-03  1.79675E-16  6.41630E+00  1.90451E-05  1.0E-07
  6.700E+00  3.41468E-03  1.79338E-16  6.40429E+00  1.93811E-05  1.0E-07
  6.800E+00  3.51725E-03  1.78998E-16  6.39213E+00  1.97192E-05  1.0E-07
  6.900E+00  3.62133E-03  1.78653E-16  6.37982E+00  2.00596E-05  1.0E-07
  7.000E+00  3.72692E-03  1.78304E-16  6.36736E+00  2.04023E-05  1.0E-07
  7.100E+00  3.83403E-03  1.77951E-16  6.35475E+00  2.07473E-05  1.0E-07
  7.200E+00  3.94265E-03  1.77594E-16  6.34200E+00  2.10946E-05  1.0E-07
  7.300E+00  4.05278E-03  1.77233E-16  6.32911E+00  2.14443E-05  1.0E-07
  7.400E+00  4.16442E-03  1.76868E-16  6.31607E+00  2.17965E-05  1.0E-07
  7.500E+00  4.27757E-03  1.76499E-16  6.30289E+00  2.21511E-05  1.0E-07
  7.600E+00  4.39223E-03  1.76126E-16  6.28957E+00  2.25082E-05  1.0E-07
  7.700E+00  4.50840E-03  1.75749E-16  6.27611E+00  2.28678E-05  1.0E-07
  7.800E+00  4.62608E-03  1.75368E-16  6.26252E+00  2.32300E-05  1.0E-07
  7.900E+00  4.74527E-03  1.74984E-16  6.24879E+00  2.35948E-05  1.0E-07
  8.000E+00  4.86597E-03  1.74596E-16  6.23492E+00  2.39623E-05  1.0E-07
  8.100E+00  4.98817E-03  1.74203E-16  6.22092E+00  2.43325E-05  1.0E-07
  8.200E+00  5.11188E-03  1.73808E-16  6.20679E+00  2.47054E-05  1.0E-07
  8.300E+00  5.23711E-03  1.73408E-16  6.19252E+00  2.50811E-05  1.0E-07
  8.400E+00  5.36383E-03  1.73005E-16  6.17813E+00  2.54596E-05  1.0E-07
  8.500E+00  5.49207E-03  1.72599E-16  6.16361E+00  2.58410E-05  1.0E-07
  8.600E+00  5.62181E-03  1.72189E-16  6.14897E+00  2.62253E-05  1.0E-07
  8.700E+00  5.75306E-03  1.71775E-16  6.13420E+00  2.66125E-05  1.0E-07
  8.800E+00  5.88581E-03  1.71358E-16  6.11930E+00  2.70026E-05  1.0E-07
  8.900E+00  6.02007E-03  1.70937E-16  6.10429E+00  2.73958E-05  1.0E-07
  9.000E+00  6.15583E-03  1.70514E-16  6.08915E+00  2.77921E-05  1.0E-07
  9.100E+00  6.29310E-03  1.70086E-16  6.07389E+00  2.81915E-05  1.0E-07
  9.200E+00  6.43187E-03  1.69656E-16  6.05852E+00  2.85940E-05  1.0E-07
  9.300E+00  6.57214E-03  1.69222E-16  6.04303E+00  2.89997E-05  1.0E-07
  9.400E+00  6.71392E-03  1.68785E-16  6.02743E+00  2.94087E-05  1.0E-07
  9.500E+00  6.85720E-03  1.68345E-16  6.01171E+00  2.98209E-05  1.0E-07
  9.600E+00  7.00198E-03  1.67902E-16  5.99588E+00  3.02364E-05  1.0E-07
  9.700E+00  7.14827E-03  1.67455E-16  5.97994E+00  3.06553E-05  1.0E-07
  9.800E+00  7.29605E-03  1.67006E-16  5.96389E+00  3.10776E-05  1.0E-07
  9.900E+00  7.44534E-03  1.66554E-16  5.94774E+00  3.15034E-05  1.0E-07
  1.000E+01  7.59612E-03  1.66098E-16  5.93147E+00  3.19326E-05  1.0E-07
  1.025E+01  7.97965E-03  1.64947E-16  5.89037E+00  3.30214E-05  1.0E-07
  1.050E+01  8.37255E-03  1.63779E-16  5.84864E+00  3.41329E-05  1.0E-07
  1.075E+01  8.77480E-03  1.62593E-16  5.80630E+00  3.52680E-05  1.0E-07
  1.100E+01  9.18641E-03  1.61391E-16  5.76339E+00  3.64273E-05  1.0E-07
  1.125E+01  9.60736E-03  1.60174E-16  5.71992E+00  3.76117E-05  1.0E-07
  1.150E+01  1.00376E-02  1.58942E-16  5.67591E+00  3.88218E-05  1.0E-07
  1.175E+01  1.04773E-02  1.57695E-16  5.63140E+00  4.00584E-05  1.0E-07
  1.200E+01  1.09262E-02  1.56435E-16  5.58641E+00  4.13223E-05  1.0E-07
  1.225E+01  1.13844E-02  1.55163E-16  5.54096E+00  4.26143E-05  1.0E-07
  1.250E+01  1.18520E-02  1.53878E-16  5.49507E+00  4.39352E-05  1.0E-07
  1.275E+01  1.23288E-02  1.52581E-16  5.44877E+00  4.52857E-05  1.0E-07
  1.300E+01  1.28150E-02  1.51274E-16  5.40209E+00  4.66668E-05  1.0E-07
  1.325E+01  1.33104E-02  1.49956E-16  5.35504E+00  4.80792E-05  1.0E-07
  1.350E+01  1.38150E-02  1.48629E-16  5.30765E+00  4.95238E-05  1.0E-07
  1.375E+01  1.43290E-02  1.47293E-16  5.25994E+00  5.10014E-05  1.0E-07
  1.400E+01  1.48521E-02  1.45949E-16  5.21194E+00  5.25129E-05  1.0E-07
  1.425E+01  1.53845E-02  1.44597E-16  5.16367E+00  5.40593E-05  1.0E-07
  1.450E+01  1.59262E-02  1.43239E-16  5.11515E+00  5.56414E-05  1.0E-07
