 #
 # Subroutine ELSEPA. Elastic scattering of electrons and positrons
 #                    by neutral atoms and positive ions
 #
 # Projectile: electron
 # Kinetic energy = 7.00000E+02 eV = 2.57245E+01 a.u.
 #
 # Element:  C,  Z =   6,  atomic weight = 1.20107E+01 g/mol
 #
 # Nuclear model: Fermi distribution
 #                Average radius = 2.45042E-13 cm
 #                Skin thickness = 5.46000E-14 cm
 #
 # Number of electrons =  6
 #
 # Electron density: analytical DHFS model
 #                   A1 =  1.53676D-01 ,   ALPHA1 = 8.04043D+00
 #                   A2 =  8.46324D-01 ,   ALPHA2 = 1.49129D+00
 #                   A3 =  0.00000D+00 ,   ALPHA3 = 1.00000D+00
 #                   Volume integral = 6.00000E+00
 #
 # Furness-McCarthy exchange potential
 #
 # Total elastic cross section = 6.83118E-17 cm**2 = 2.43946E+00 a0**2
 # 1st transport cross section = 7.18966E-18 cm**2 = 2.56747E-01 a0**2
 # 2nd transport cross section = 1.42704E-17 cm**2 = 5.09606E-01 a0**2
 #
 #
 # Differential cross section:                       MU=(1-COS(THETA))/2
 #
 #  THETA        MU          DCS          DCS        Sherman      error
 #  (deg)                 (cm**2/sr)   (a0**2/sr)    function
 #----------------------------------------------------------------------
  0.000E+00  0.00000E+00  5.10378E-16  1.82259E+01  0.00000E+00  1.0E-07
  1.000E-04  7.61557E-13  5.10378E-16  1.82259E+01  1.46077E-10  1.0E-07
  1.250E-04  1.18994E-12  5.10378E-16  1.82259E+01  1.82596E-10  1.0E-07
  1.500E-04  1.71346E-12  5.10378E-16  1.82259E+01  2.19116E-10  1.0E-07
  1.750E-04  2.33225E-12  5.10378E-16  1.82259E+01  2.55635E-10  1.0E-07
  2.000E-04  3.04617E-12  5.10378E-16  1.82259E+01  2.92154E-10  1.0E-07
  2.250E-04  3.85530E-12  5.10378E-16  1.82259E+01  3.28674E-10  1.0E-07
  2.500E-04  4.75964E-12  5.10378E-16  1.82259E+01  3.65193E-10  1.0E-07
  2.750E-04  5.75917E-12  5.10378E-16  1.82259E+01  4.01712E-10  1.0E-07
  3.000E-04  6.85391E-12  5.10378E-16  1.82259E+01  4.38232E-10  1.0E-07
  3.250E-04  8.04379E-12  5.10378E-16  1.82259E+01  4.74751E-10  1.0E-07
  3.500E-04  9.32893E-12  5.10378E-16  1.82259E+01  5.11270E-10  1.0E-07
  3.750E-04  1.07092E-11  5.10378E-16  1.82259E+01  5.47789E-10  1.0E-07
  4.000E-04  1.21847E-11  5.10378E-16  1.82259E+01  5.84309E-10  1.0E-07
  4.250E-04  1.37554E-11  5.10378E-16  1.82259E+01  6.20828E-10  1.0E-07
  4.500E-04  1.54213E-11  5.10378E-16  1.82259E+01  6.57347E-10  1.0E-07
  4.750E-04  1.71823E-11  5.10378E-16  1.82259E+01  6.93867E-10  1.0E-07
  5.000E-04  1.90386E-11  5.10378E-16  1.82259E+01  7.30386E-10  1.0E-07
  5.250E-04  2.09900E-11  5.10378E-16  1.82259E+01  7.66905E-10  1.0E-07
  5.500E-04  2.30367E-11  5.10378E-16  1.82259E+01  8.03425E-10  1.0E-07
  5.750E-04  2.51785E-11  5.10378E-16  1.82259E+01  8.39944E-10  1.0E-07
  6.000E-04  2.74156E-11  5.10378E-16  1.82259E+01  8.76463E-10  1.0E-07
  6.250E-04  2.97478E-11  5.10378E-16  1.82259E+01  9.12982E-10  1.0E-07
  6.500E-04  3.21752E-11  5.10378E-16  1.82259E+01  9.49502E-10  1.0E-07
  6.750E-04  3.46979E-11  5.10378E-16  1.82259E+01  9.86021E-10  1.0E-07
  7.000E-04  3.73157E-11  5.10378E-16  1.82259E+01  1.02254E-09  1.0E-07
  7.250E-04  4.00286E-11  5.10378E-16  1.82259E+01  1.05906E-09  1.0E-07
  7.500E-04  4.28368E-11  5.10378E-16  1.82259E+01  1.09558E-09  1.0E-07
  7.750E-04  4.57402E-11  5.10378E-16  1.82259E+01  1.13210E-09  1.0E-07
  8.000E-04  4.87388E-11  5.10378E-16  1.82259E+01  1.16862E-09  1.0E-07
  8.250E-04  5.18325E-11  5.10378E-16  1.82259E+01  1.20514E-09  1.0E-07
  8.500E-04  5.50215E-11  5.10378E-16  1.82259E+01  1.24166E-09  1.0E-07
  8.750E-04  5.83057E-11  5.10378E-16  1.82259E+01  1.27818E-09  1.0E-07
  9.000E-04  6.16850E-11  5.10378E-16  1.82259E+01  1.31469E-09  1.0E-07
  9.250E-04  6.51595E-11  5.10378E-16  1.82259E+01  1.35121E-09  1.0E-07
  9.500E-04  6.87293E-11  5.10378E-16  1.82259E+01  1.38773E-09  1.0E-07
  9.750E-04  7.23943E-11  5.10378E-16  1.82259E+01  1.42425E-09  1.0E-07
  1.000E-03  7.61544E-11  5.10378E-16  1.82259E+01  1.46077E-09  1.0E-07
  1.250E-03  1.18991E-10  5.10378E-16  1.82259E+01  1.82596E-09  1.0E-07
  1.500E-03  1.71347E-10  5.10378E-16  1.82259E+01  2.19116E-09  1.0E-07
  1.750E-03  2.33223E-10  5.10378E-16  1.82259E+01  2.55635E-09  1.0E-07
  2.000E-03  3.04617E-10  5.10378E-16  1.82259E+01  2.92154E-09  1.0E-07
  2.250E-03  3.85531E-10  5.10378E-16  1.82259E+01  3.28674E-09  1.0E-07
  2.500E-03  4.75965E-10  5.10377E-16  1.82259E+01  3.65193E-09  1.0E-07
  2.750E-03  5.75917E-10  5.10377E-16  1.82259E+01  4.01712E-09  1.0E-07
  3.000E-03  6.85389E-10  5.10377E-16  1.82259E+01  4.38232E-09  1.0E-07
  3.250E-03  8.04380E-10  5.10377E-16  1.82259E+01  4.74751E-09  1.0E-07
  3.500E-03  9.32891E-10  5.10377E-16  1.82259E+01  5.11270E-09  1.0E-07
  3.750E-03  1.07092E-09  5.10377E-16  1.82259E+01  5.47790E-09  1.0E-07
  4.000E-03  1.21847E-09  5.10377E-16  1.82259E+01  5.84309E-09  1.0E-07
  4.250E-03  1.37554E-09  5.10377E-16  1.82259E+01  6.20828E-09  1.0E-07
  4.500E-03  1.54213E-09  5.10377E-16  1.82259E+01  6.57347E-09  1.0E-07
  4.750E-03  1.71823E-09  5.10377E-16  1.82259E+01  6.93867E-09  1.0E-07
  5.000E-03  1.90386E-09  5.10377E-16  1.82259E+01  7.30386E-09  1.0E-07
  5.250E-03  2.09900E-09  5.10377E-16  1.82259E+01  7.66905E-09  1.0E-07
  5.500E-03  2.30367E-09  5.10377E-16  1.82259E+01  8.03425E-09  1.0E-07
  5.750E-03  2.51785E-09  5.10377E-16  1.82259E+01  8.39944E-09  1.0E-07
  6.000E-03  2.74156E-09  5.10377E-16  1.82259E+01  8.76463E-09  1.0E-07
  6.250E-03  2.97478E-09  5.10377E-16  1.82259E+01  9.12983E-09  1.0E-07
  6.500E-03  3.21752E-09  5.10377E-16  1.82259E+01  9.49502E-09  1.0E-07
  6.750E-03  3.46978E-09  5.10377E-16  1.82259E+01  9.86021E-09  1.0E-07
  7.000E-03  3.73156E-09  5.10377E-16  1.82259E+01  1.02254E-08  1.0E-07
  7.250E-03  4.00286E-09  5.10377E-16  1.82259E+01  1.05906E-08  1.0E-07
  7.500E-03  4.28368E-09  5.10377E-16  1.82259E+01  1.09558E-08  1.0E-07
  7.750E-03  4.57402E-09  5.10377E-16  1.82259E+01  1.13210E-08  1.0E-07
  8.000E-03  4.87388E-09  5.10377E-16  1.82259E+01  1.16862E-08  1.0E-07
  8.250E-03  5.18326E-09  5.10377E-16  1.82259E+01  1.20514E-08  1.0E-07
  8.500E-03  5.50215E-09  5.10377E-16  1.82259E+01  1.24166E-08  1.0E-07
  8.750E-03  5.83057E-09  5.10377E-16  1.82259E+01  1.27818E-08  1.0E-07
  9.000E-03  6.16850E-09  5.10377E-16  1.82259E+01  1.31470E-08  1.0E-07
  9.250E-03  6.51596E-09  5.10377E-16  1.82259E+01  1.35121E-08  1.0E-07
  9.500E-03  6.87293E-09  5.10377E-16  1.82259E+01  1.38773E-08  1.0E-07
  9.750E-03  7.23942E-09  5.10377E-16  1.82259E+01  1.42425E-08  1.0E-07
  1.000E-02  7.61544E-09  5.10377E-16  1.82259E+01  1.46077E-08  1.0E-07
  1.250E-02  1.18991E-08  5.10376E-16  1.82259E+01  1.82597E-08  1.0E-07
  1.500E-02  1.71347E-08  5.10376E-16  1.82259E+01  2.19116E-08  1.0E-07
  1.750E-02  2.33223E-08  5.10375E-16  1.82258E+01  2.55636E-08  1.0E-07
  2.000E-02  3.04617E-08  5.10375E-16  1.82258E+01  2.92155E-08  1.0E-07
  2.250E-02  3.85531E-08  5.10374E-16  1.82258E+01  3.28675E-08  1.0E-07
  2.500E-02  4.75965E-08  5.10373E-16  1.82257E+01  3.65194E-08  1.0E-07
  2.750E-02  5.75917E-08  5.10372E-16  1.82257E+01  4.01714E-08  1.0E-07
  3.000E-02  6.85389E-08  5.10371E-16  1.82257E+01  4.38234E-08  1.0E-07
  3.250E-02  8.04380E-08  5.10370E-16  1.82256E+01  4.74754E-08  1.0E-07
  3.500E-02  9.32891E-08  5.10368E-16  1.82256E+01  5.11274E-08  1.0E-07
  3.750E-02  1.07092E-07  5.10367E-16  1.82255E+01  5.47794E-08  1.0E-07
  4.000E-02  1.21847E-07  5.10365E-16  1.82255E+01  5.84314E-08  1.0E-07
  4.250E-02  1.37554E-07  5.10364E-16  1.82254E+01  6.20834E-08  1.0E-07
  4.500E-02  1.54213E-07  5.10362E-16  1.82254E+01  6.57355E-08  1.0E-07
  4.750E-02  1.71823E-07  5.10360E-16  1.82253E+01  6.93876E-08  1.0E-07
  5.000E-02  1.90386E-07  5.10359E-16  1.82252E+01  7.30396E-08  1.0E-07
  5.250E-02  2.09900E-07  5.10357E-16  1.82252E+01  7.66917E-08  1.0E-07
  5.500E-02  2.30367E-07  5.10355E-16  1.82251E+01  8.03438E-08  1.0E-07
  5.750E-02  2.51785E-07  5.10352E-16  1.82250E+01  8.39960E-08  1.0E-07
  6.000E-02  2.74156E-07  5.10350E-16  1.82249E+01  8.76481E-08  1.0E-07
  6.250E-02  2.97478E-07  5.10348E-16  1.82249E+01  9.13003E-08  1.0E-07
  6.500E-02  3.21752E-07  5.10345E-16  1.82248E+01  9.49525E-08  1.0E-07
  6.750E-02  3.46978E-07  5.10343E-16  1.82247E+01  9.86047E-08  1.0E-07
  7.000E-02  3.73156E-07  5.10340E-16  1.82246E+01  1.02257E-07  1.0E-07
  7.250E-02  4.00286E-07  5.10338E-16  1.82245E+01  1.05909E-07  1.0E-07
  7.500E-02  4.28368E-07  5.10335E-16  1.82244E+01  1.09561E-07  1.0E-07
  7.750E-02  4.57402E-07  5.10332E-16  1.82243E+01  1.13214E-07  1.0E-07
  8.000E-02  4.87388E-07  5.10329E-16  1.82242E+01  1.16866E-07  1.0E-07
  8.250E-02  5.18325E-07  5.10326E-16  1.82241E+01  1.20518E-07  1.0E-07
  8.500E-02  5.50215E-07  5.10323E-16  1.82240E+01  1.24171E-07  1.0E-07
  8.750E-02  5.83057E-07  5.10319E-16  1.82238E+01  1.27823E-07  1.0E-07
  9.000E-02  6.16850E-07  5.10316E-16  1.82237E+01  1.31476E-07  1.0E-07
  9.250E-02  6.51596E-07  5.10313E-16  1.82236E+01  1.35128E-07  1.0E-07
  9.500E-02  6.87293E-07  5.10309E-16  1.82235E+01  1.38780E-07  1.0E-07
  9.750E-02  7.23942E-07  5.10305E-16  1.82233E+01  1.42433E-07  1.0E-07
  1.000E-01  7.61543E-07  5.10302E-16  1.82232E+01  1.46085E-07  1.0E-07
  1.250E-01  1.18991E-06  5.10259E-16  1.82217E+01  1.82613E-07  1.0E-07
  1.500E-01  1.71347E-06  5.10207E-16  1.82198E+01  2.19144E-07  1.0E-07
  1.750E-01  2.33223E-06  5.10145E-16  1.82176E+01  2.55679E-07  1.0E-07
  2.000E-01  3.04617E-06  5.10074E-16  1.82151E+01  2.92221E-07  1.0E-07
  2.250E-01  3.85531E-06  5.09993E-16  1.82122E+01  3.28768E-07  1.0E-07
  2.500E-01  4.75964E-06  5.09903E-16  1.82090E+01  3.65322E-07  1.0E-07
  2.750E-01  5.75916E-06  5.09804E-16  1.82054E+01  4.01884E-07  1.0E-07
  3.000E-01  6.85388E-06  5.09695E-16  1.82015E+01  4.38455E-07  1.0E-07
  3.250E-01  8.04378E-06  5.09576E-16  1.81973E+01  4.75035E-07  1.0E-07
  3.500E-01  9.32888E-06  5.09448E-16  1.81927E+01  5.11625E-07  1.0E-07
  3.750E-01  1.07092E-05  5.09311E-16  1.81878E+01  5.48226E-07  1.0E-07
  4.000E-01  1.21846E-05  5.09164E-16  1.81826E+01  5.84839E-07  1.0E-07
  4.250E-01  1.37553E-05  5.09008E-16  1.81770E+01  6.21464E-07  1.0E-07
  4.500E-01  1.54212E-05  5.08843E-16  1.81711E+01  6.58102E-07  1.0E-07
  4.750E-01  1.71822E-05  5.08668E-16  1.81649E+01  6.94754E-07  1.0E-07
  5.000E-01  1.90385E-05  5.08484E-16  1.81583E+01  7.31421E-07  1.0E-07
  5.250E-01  2.09899E-05  5.08290E-16  1.81514E+01  7.68103E-07  1.0E-07
  5.500E-01  2.30365E-05  5.08087E-16  1.81441E+01  8.04801E-07  1.0E-07
  5.750E-01  2.51783E-05  5.07875E-16  1.81365E+01  8.41517E-07  1.0E-07
  6.000E-01  2.74153E-05  5.07654E-16  1.81286E+01  8.78251E-07  1.0E-07
  6.250E-01  2.97475E-05  5.07423E-16  1.81204E+01  9.15003E-07  1.0E-07
  6.500E-01  3.21749E-05  5.07183E-16  1.81118E+01  9.51774E-07  1.0E-07
  6.750E-01  3.46974E-05  5.06934E-16  1.81029E+01  9.88566E-07  1.0E-07
  7.000E-01  3.73152E-05  5.06675E-16  1.80937E+01  1.02538E-06  1.0E-07
  7.250E-01  4.00281E-05  5.06408E-16  1.80841E+01  1.06221E-06  1.0E-07
  7.500E-01  4.28362E-05  5.06131E-16  1.80743E+01  1.09907E-06  1.0E-07
  7.750E-01  4.57395E-05  5.05845E-16  1.80640E+01  1.13595E-06  1.0E-07
  8.000E-01  4.87380E-05  5.05550E-16  1.80535E+01  1.17285E-06  1.0E-07
  8.250E-01  5.18317E-05  5.05246E-16  1.80426E+01  1.20978E-06  1.0E-07
  8.500E-01  5.50205E-05  5.04932E-16  1.80315E+01  1.24673E-06  1.0E-07
  8.750E-01  5.83045E-05  5.04610E-16  1.80200E+01  1.28371E-06  1.0E-07
  9.000E-01  6.16838E-05  5.04279E-16  1.80081E+01  1.32072E-06  1.0E-07
  9.250E-01  6.51582E-05  5.03938E-16  1.79960E+01  1.35776E-06  1.0E-07
  9.500E-01  6.87277E-05  5.03589E-16  1.79835E+01  1.39482E-06  1.0E-07
  9.750E-01  7.23925E-05  5.03231E-16  1.79707E+01  1.43191E-06  1.0E-07
  1.000E+00  7.61524E-05  5.02864E-16  1.79576E+01  1.46904E-06  1.0E-07
  1.100E+00  9.21439E-05  5.01307E-16  1.79020E+01  1.61785E-06  1.0E-07
  1.200E+00  1.09658E-04  4.99609E-16  1.78414E+01  1.76720E-06  1.0E-07
  1.300E+00  1.28695E-04  4.97774E-16  1.77758E+01  1.91714E-06  1.0E-07
  1.400E+00  1.49255E-04  4.95803E-16  1.77054E+01  2.06772E-06  1.0E-07
  1.500E+00  1.71338E-04  4.93699E-16  1.76303E+01  2.21898E-06  1.0E-07
  1.600E+00  1.94942E-04  4.91464E-16  1.75505E+01  2.37098E-06  1.0E-07
  1.700E+00  2.20070E-04  4.89102E-16  1.74661E+01  2.52377E-06  1.0E-07
  1.800E+00  2.46720E-04  4.86614E-16  1.73773E+01  2.67738E-06  1.0E-07
  1.900E+00  2.74892E-04  4.84005E-16  1.72841E+01  2.83187E-06  1.0E-07
  2.000E+00  3.04586E-04  4.81277E-16  1.71867E+01  2.98727E-06  1.0E-07
  2.100E+00  3.35803E-04  4.78434E-16  1.70852E+01  3.14365E-06  1.0E-07
  2.200E+00  3.68542E-04  4.75478E-16  1.69796E+01  3.30104E-06  1.0E-07
  2.300E+00  4.02802E-04  4.72414E-16  1.68702E+01  3.45949E-06  1.0E-07
  2.400E+00  4.38585E-04  4.69244E-16  1.67570E+01  3.61904E-06  1.0E-07
  2.500E+00  4.75889E-04  4.65973E-16  1.66402E+01  3.77974E-06  1.0E-07
  2.600E+00  5.14715E-04  4.62605E-16  1.65199E+01  3.94163E-06  1.0E-07
  2.700E+00  5.55063E-04  4.59142E-16  1.63963E+01  4.10476E-06  1.0E-07
  2.800E+00  5.96931E-04  4.55589E-16  1.62694E+01  4.26916E-06  1.0E-07
  2.900E+00  6.40321E-04  4.51949E-16  1.61394E+01  4.43488E-06  1.0E-07
  3.000E+00  6.85233E-04  4.48227E-16  1.60065E+01  4.60197E-06  1.0E-07
  3.100E+00  7.31665E-04  4.44426E-16  1.58707E+01  4.77045E-06  1.0E-07
  3.200E+00  7.79618E-04  4.40550E-16  1.57323E+01  4.94038E-06  1.0E-07
  3.300E+00  8.29092E-04  4.36603E-16  1.55914E+01  5.11180E-06  1.0E-07
  3.400E+00  8.80086E-04  4.32589E-16  1.54480E+01  5.28474E-06  1.0E-07
  3.500E+00  9.32601E-04  4.28513E-16  1.53025E+01  5.45923E-06  1.0E-07
  3.600E+00  9.86636E-04  4.24377E-16  1.51548E+01  5.63533E-06  1.0E-07
  3.700E+00  1.04219E-03  4.20186E-16  1.50051E+01  5.81307E-06  1.0E-07
  3.800E+00  1.09927E-03  4.15944E-16  1.48536E+01  5.99248E-06  1.0E-07
  3.900E+00  1.15786E-03  4.11654E-16  1.47004E+01  6.17360E-06  1.0E-07
  4.000E+00  1.21797E-03  4.07320E-16  1.45457E+01  6.35646E-06  1.0E-07
  4.100E+00  1.27961E-03  4.02946E-16  1.43895E+01  6.54110E-06  1.0E-07
  4.200E+00  1.34276E-03  3.98537E-16  1.42320E+01  6.72756E-06  1.0E-07
  4.300E+00  1.40743E-03  3.94094E-16  1.40734E+01  6.91586E-06  1.0E-07
  4.400E+00  1.47362E-03  3.89623E-16  1.39137E+01  7.10603E-06  1.0E-07
  4.500E+00  1.54133E-03  3.85126E-16  1.37531E+01  7.29812E-06  1.0E-07
  4.600E+00  1.61056E-03  3.80607E-16  1.35917E+01  7.49215E-06  1.0E-07
  4.700E+00  1.68131E-03  3.76069E-16  1.34297E+01  7.68814E-06  1.0E-07
  4.800E+00  1.75357E-03  3.71516E-16  1.32671E+01  7.88613E-06  1.0E-07
  4.900E+00  1.82735E-03  3.66952E-16  1.31041E+01  8.08615E-06  1.0E-07
  5.000E+00  1.90265E-03  3.62378E-16  1.29407E+01  8.28822E-06  1.0E-07
  5.100E+00  1.97947E-03  3.57798E-16  1.27772E+01  8.49236E-06  1.0E-07
  5.200E+00  2.05780E-03  3.53216E-16  1.26136E+01  8.69861E-06  1.0E-07
  5.300E+00  2.13765E-03  3.48633E-16  1.24499E+01  8.90699E-06  1.0E-07
  5.400E+00  2.21902E-03  3.44053E-16  1.22864E+01  9.11751E-06  1.0E-07
  5.500E+00  2.30190E-03  3.39479E-16  1.21230E+01  9.33020E-06  1.0E-07
  5.600E+00  2.38630E-03  3.34914E-16  1.19600E+01  9.54508E-06  1.0E-07
  5.700E+00  2.47222E-03  3.30359E-16  1.17973E+01  9.76218E-06  1.0E-07
  5.800E+00  2.55965E-03  3.25817E-16  1.16351E+01  9.98150E-06  1.0E-07
  5.900E+00  2.64859E-03  3.21290E-16  1.14735E+01  1.02031E-05  1.0E-07
  6.000E+00  2.73905E-03  3.16782E-16  1.13125E+01  1.04269E-05  1.0E-07
  6.100E+00  2.83103E-03  3.12293E-16  1.11522E+01  1.06530E-05  1.0E-07
  6.200E+00  2.92452E-03  3.07827E-16  1.09927E+01  1.08814E-05  1.0E-07
  6.300E+00  3.01952E-03  3.03384E-16  1.08340E+01  1.11121E-05  1.0E-07
  6.400E+00  3.11604E-03  2.98967E-16  1.06763E+01  1.13452E-05  1.0E-07
  6.500E+00  3.21407E-03  2.94578E-16  1.05196E+01  1.15805E-05  1.0E-07
  6.600E+00  3.31362E-03  2.90218E-16  1.03639E+01  1.18182E-05  1.0E-07
  6.700E+00  3.41468E-03  2.85889E-16  1.02093E+01  1.20582E-05  1.0E-07
  6.800E+00  3.51725E-03  2.81593E-16  1.00559E+01  1.23006E-05  1.0E-07
  6.900E+00  3.62133E-03  2.77330E-16  9.90364E+00  1.25454E-05  1.0E-07
  7.000E+00  3.72692E-03  2.73103E-16  9.75268E+00  1.27925E-05  1.0E-07
  7.100E+00  3.83403E-03  2.68912E-16  9.60302E+00  1.30420E-05  1.0E-07
  7.200E+00  3.94265E-03  2.64759E-16  9.45471E+00  1.32938E-05  1.0E-07
  7.300E+00  4.05278E-03  2.60645E-16  9.30779E+00  1.35480E-05  1.0E-07
  7.400E+00  4.16442E-03  2.56570E-16  9.16228E+00  1.38046E-05  1.0E-07
  7.500E+00  4.27757E-03  2.52536E-16  9.01823E+00  1.40636E-05  1.0E-07
  7.600E+00  4.39223E-03  2.48544E-16  8.87567E+00  1.43249E-05  1.0E-07
  7.700E+00  4.50840E-03  2.44594E-16  8.73462E+00  1.45885E-05  1.0E-07
  7.800E+00  4.62608E-03  2.40688E-16  8.59511E+00  1.48546E-05  1.0E-07
  7.900E+00  4.74527E-03  2.36825E-16  8.45717E+00  1.51229E-05  1.0E-07
  8.000E+00  4.86597E-03  2.33007E-16  8.32082E+00  1.53936E-05  1.0E-07
  8.100E+00  4.98817E-03  2.29233E-16  8.18607E+00  1.56667E-05  1.0E-07
  8.200E+00  5.11188E-03  2.25505E-16  8.05294E+00  1.59420E-05  1.0E-07
  8.300E+00  5.23711E-03  2.21823E-16  7.92145E+00  1.62197E-05  1.0E-07
  8.400E+00  5.36383E-03  2.18187E-16  7.79160E+00  1.64996E-05  1.0E-07
  8.500E+00  5.49207E-03  2.14598E-16  7.66342E+00  1.67818E-05  1.0E-07
  8.600E+00  5.62181E-03  2.11055E-16  7.53691E+00  1.70663E-05  1.0E-07
  8.700E+00  5.75306E-03  2.07559E-16  7.41208E+00  1.73530E-05  1.0E-07
  8.800E+00  5.88581E-03  2.04111E-16  7.28892E+00  1.76419E-05  1.0E-07
  8.900E+00  6.02007E-03  2.00709E-16  7.16746E+00  1.79330E-05  1.0E-07
  9.000E+00  6.15583E-03  1.97355E-16  7.04768E+00  1.82263E-05  1.0E-07
  9.100E+00  6.29310E-03  1.94048E-16  6.92959E+00  1.85217E-05  1.0E-07
  9.200E+00  6.43187E-03  1.90789E-16  6.81318E+00  1.88193E-05  1.0E-07
  9.300E+00  6.57214E-03  1.87576E-16  6.69847E+00  1.91189E-05  1.0E-07
  9.400E+00  6.71392E-03  1.84411E-16  6.58543E+00  1.94206E-05  1.0E-07
  9.500E+00  6.85720E-03  1.81293E-16  6.47407E+00  1.97244E-05  1.0E-07
  9.600E+00  7.00198E-03  1.78221E-16  6.36439E+00  2.00302E-05  1.0E-07
  9.700E+00  7.14827E-03  1.75196E-16  6.25637E+00  2.03379E-05  1.0E-07
  9.800E+00  7.29605E-03  1.72218E-16  6.15001E+00  2.06476E-05  1.0E-07
  9.900E+00  7.44534E-03  1.69285E-16  6.04529E+00  2.09592E-05  1.0E-07
  1.000E+01  7.59612E-03  1.66399E-16  5.94222E+00  2.12727E-05  1.0E-07
  1.025E+01  7.97965E-03  1.59382E-16  5.69162E+00  2.20643E-05  1.0E-07
  1.050E+01  8.37255E-03  1.52644E-16  5.45101E+00  2.28667E-05  1.0E-07
  1.075E+01  8.77480E-03  1.46180E-16  5.22017E+00  2.36792E-05  1.0E-07
  1.100E+01  9.18641E-03  1.39983E-16  4.99887E+00  2.45011E-05  1.0E-07
  1.125E+01  9.60736E-03  1.34045E-16  4.78684E+00  2.53316E-05  1.0E-07
  1.150E+01  1.00376E-02  1.28360E-16  4.58383E+00  2.61698E-05  1.0E-07
  1.175E+01  1.04773E-02  1.22920E-16  4.38955E+00  2.70148E-05  1.0E-07
  1.200E+01  1.09262E-02  1.17716E-16  4.20372E+00  2.78657E-05  1.0E-07
  1.225E+01  1.13844E-02  1.12741E-16  4.02605E+00  2.87216E-05  1.0E-07
  1.250E+01  1.18520E-02  1.07986E-16  3.85625E+00  2.95813E-05  1.0E-07
  1.275E+01  1.23288E-02  1.03443E-16  3.69402E+00  3.04437E-05  1.0E-07
  1.300E+01  1.28150E-02  9.91041E-17  3.53907E+00  3.13078E-05  1.0E-07
  1.325E+01  1.33104E-02  9.49610E-17  3.39112E+00  3.21724E-05  1.0E-07
  1.350E+01  1.38150E-02  9.10057E-17  3.24987E+00  3.30363E-05  1.0E-07
  1.375E+01  1.43290E-02  8.72306E-17  3.11506E+00  3.38981E-05  1.0E-07
  1.400E+01  1.48521E-02  8.36278E-17  2.98640E+00  3.47567E-05  1.0E-07
  1.425E+01  1.53845E-02  8.01899E-17  2.86363E+00  3.56108E-05  1.0E-07
  1.450E+01  1.59262E-02  7.69097E-17  2.74650E+00  3.64589E-05  1.0E-07
  1.475E+01  1.64770E-02  7.37802E-17  2.63474E+00  3.72998E-05  1.0E-07
  1.500E+01  1.70371E-02  7.07944E-17  2.52811E+00  3.81320E-05  1.0E-07
