 #
 # Subroutine ELSEPA. Elastic scattering of electrons and positrons
 #                    by neutral atoms and positive ions
 #
 # Projectile: electron
 # Kinetic energy = 2.00000E+02 eV = 7.34987E+00 a.u.
 #
 # Element:  C,  Z =   6,  atomic weight = 1.20107E+01 g/mol
 #
 # Nuclear model: Fermi distribution
 #                Average radius = 2.45042E-13 cm
 #                Skin thickness = 5.46000E-14 cm
 #
 # Number of electrons =  6
 #
 # Electron density: analytical DHFS model
 #                   A1 =  1.53676D-01 ,   ALPHA1 = 8.04043D+00
 #                   A2 =  8.46324D-01 ,   ALPHA2 = 1.49129D+00
 #                   A3 =  0.00000D+00 ,   ALPHA3 = 1.00000D+00
 #                   Volume integral = 6.00000E+00
 #
 # Furness-McCarthy exchange potential
 #
 # Total elastic cross section = 1.73811E-16 cm**2 = 6.20691E+00 a0**2
 # 1st transport cross section = 4.96824E-17 cm**2 = 1.77419E+00 a0**2
 # 2nd transport cross section = 7.25597E-17 cm**2 = 2.59116E+00 a0**2
 #
 #
 # Differential cross section:                       MU=(1-COS(THETA))/2
 #
 #  THETA        MU          DCS          DCS        Sherman      error
 #  (deg)                 (cm**2/sr)   (a0**2/sr)    function
 #----------------------------------------------------------------------
  0.000E+00  0.00000E+00  4.14609E-16  1.48060E+01  0.00000E+00  1.0E-07
  1.000E-04  7.61557E-13  4.14609E-16  1.48060E+01  2.27821E-10  1.0E-07
  1.250E-04  1.18994E-12  4.14609E-16  1.48060E+01  2.84777E-10  1.0E-07
  1.500E-04  1.71346E-12  4.14609E-16  1.48060E+01  3.41732E-10  1.0E-07
  1.750E-04  2.33225E-12  4.14609E-16  1.48060E+01  3.98688E-10  1.0E-07
  2.000E-04  3.04617E-12  4.14609E-16  1.48060E+01  4.55643E-10  1.0E-07
  2.250E-04  3.85530E-12  4.14609E-16  1.48060E+01  5.12598E-10  1.0E-07
  2.500E-04  4.75964E-12  4.14609E-16  1.48060E+01  5.69554E-10  1.0E-07
  2.750E-04  5.75917E-12  4.14609E-16  1.48060E+01  6.26509E-10  1.0E-07
  3.000E-04  6.85391E-12  4.14609E-16  1.48060E+01  6.83464E-10  1.0E-07
  3.250E-04  8.04379E-12  4.14609E-16  1.48060E+01  7.40420E-10  1.0E-07
  3.500E-04  9.32893E-12  4.14609E-16  1.48060E+01  7.97375E-10  1.0E-07
  3.750E-04  1.07092E-11  4.14609E-16  1.48060E+01  8.54331E-10  1.0E-07
  4.000E-04  1.21847E-11  4.14609E-16  1.48060E+01  9.11286E-10  1.0E-07
  4.250E-04  1.37554E-11  4.14609E-16  1.48060E+01  9.68241E-10  1.0E-07
  4.500E-04  1.54213E-11  4.14609E-16  1.48060E+01  1.02520E-09  1.0E-07
  4.750E-04  1.71823E-11  4.14609E-16  1.48060E+01  1.08215E-09  1.0E-07
  5.000E-04  1.90386E-11  4.14609E-16  1.48060E+01  1.13911E-09  1.0E-07
  5.250E-04  2.09900E-11  4.14609E-16  1.48060E+01  1.19606E-09  1.0E-07
  5.500E-04  2.30367E-11  4.14609E-16  1.48060E+01  1.25302E-09  1.0E-07
  5.750E-04  2.51785E-11  4.14609E-16  1.48060E+01  1.30997E-09  1.0E-07
  6.000E-04  2.74156E-11  4.14609E-16  1.48060E+01  1.36693E-09  1.0E-07
  6.250E-04  2.97478E-11  4.14609E-16  1.48060E+01  1.42388E-09  1.0E-07
  6.500E-04  3.21752E-11  4.14609E-16  1.48060E+01  1.48084E-09  1.0E-07
  6.750E-04  3.46979E-11  4.14609E-16  1.48060E+01  1.53780E-09  1.0E-07
  7.000E-04  3.73157E-11  4.14609E-16  1.48060E+01  1.59475E-09  1.0E-07
  7.250E-04  4.00286E-11  4.14609E-16  1.48060E+01  1.65171E-09  1.0E-07
  7.500E-04  4.28368E-11  4.14609E-16  1.48060E+01  1.70866E-09  1.0E-07
  7.750E-04  4.57402E-11  4.14609E-16  1.48060E+01  1.76562E-09  1.0E-07
  8.000E-04  4.87388E-11  4.14609E-16  1.48060E+01  1.82257E-09  1.0E-07
  8.250E-04  5.18325E-11  4.14609E-16  1.48060E+01  1.87953E-09  1.0E-07
  8.500E-04  5.50215E-11  4.14609E-16  1.48060E+01  1.93648E-09  1.0E-07
  8.750E-04  5.83057E-11  4.14609E-16  1.48060E+01  1.99344E-09  1.0E-07
  9.000E-04  6.16850E-11  4.14609E-16  1.48060E+01  2.05039E-09  1.0E-07
  9.250E-04  6.51595E-11  4.14609E-16  1.48060E+01  2.10735E-09  1.0E-07
  9.500E-04  6.87293E-11  4.14609E-16  1.48060E+01  2.16430E-09  1.0E-07
  9.750E-04  7.23943E-11  4.14609E-16  1.48060E+01  2.22126E-09  1.0E-07
  1.000E-03  7.61544E-11  4.14609E-16  1.48060E+01  2.27821E-09  1.0E-07
  1.250E-03  1.18991E-10  4.14609E-16  1.48060E+01  2.84777E-09  1.0E-07
  1.500E-03  1.71347E-10  4.14609E-16  1.48060E+01  3.41732E-09  1.0E-07
  1.750E-03  2.33223E-10  4.14609E-16  1.48060E+01  3.98688E-09  1.0E-07
  2.000E-03  3.04617E-10  4.14609E-16  1.48060E+01  4.55643E-09  1.0E-07
  2.250E-03  3.85531E-10  4.14609E-16  1.48060E+01  5.12598E-09  1.0E-07
  2.500E-03  4.75965E-10  4.14609E-16  1.48060E+01  5.69554E-09  1.0E-07
  2.750E-03  5.75917E-10  4.14609E-16  1.48060E+01  6.26509E-09  1.0E-07
  3.000E-03  6.85389E-10  4.14609E-16  1.48060E+01  6.83464E-09  1.0E-07
  3.250E-03  8.04380E-10  4.14609E-16  1.48060E+01  7.40420E-09  1.0E-07
  3.500E-03  9.32891E-10  4.14609E-16  1.48060E+01  7.97375E-09  1.0E-07
  3.750E-03  1.07092E-09  4.14609E-16  1.48060E+01  8.54331E-09  1.0E-07
  4.000E-03  1.21847E-09  4.14609E-16  1.48060E+01  9.11286E-09  1.0E-07
  4.250E-03  1.37554E-09  4.14609E-16  1.48060E+01  9.68241E-09  1.0E-07
  4.500E-03  1.54213E-09  4.14609E-16  1.48060E+01  1.02520E-08  1.0E-07
  4.750E-03  1.71823E-09  4.14609E-16  1.48060E+01  1.08215E-08  1.0E-07
  5.000E-03  1.90386E-09  4.14609E-16  1.48060E+01  1.13911E-08  1.0E-07
  5.250E-03  2.09900E-09  4.14609E-16  1.48060E+01  1.19606E-08  1.0E-07
  5.500E-03  2.30367E-09  4.14609E-16  1.48060E+01  1.25302E-08  1.0E-07
  5.750E-03  2.51785E-09  4.14609E-16  1.48060E+01  1.30997E-08  1.0E-07
  6.000E-03  2.74156E-09  4.14609E-16  1.48060E+01  1.36693E-08  1.0E-07
  6.250E-03  2.97478E-09  4.14609E-16  1.48060E+01  1.42388E-08  1.0E-07
  6.500E-03  3.21752E-09  4.14609E-16  1.48060E+01  1.48084E-08  1.0E-07
  6.750E-03  3.46978E-09  4.14609E-16  1.48060E+01  1.53780E-08  1.0E-07
  7.000E-03  3.73156E-09  4.14609E-16  1.48060E+01  1.59475E-08  1.0E-07
  7.250E-03  4.00286E-09  4.14609E-16  1.48060E+01  1.65171E-08  1.0E-07
  7.500E-03  4.28368E-09  4.14609E-16  1.48060E+01  1.70866E-08  1.0E-07
  7.750E-03  4.57402E-09  4.14609E-16  1.48060E+01  1.76562E-08  1.0E-07
  8.000E-03  4.87388E-09  4.14609E-16  1.48060E+01  1.82257E-08  1.0E-07
  8.250E-03  5.18326E-09  4.14609E-16  1.48060E+01  1.87953E-08  1.0E-07
  8.500E-03  5.50215E-09  4.14609E-16  1.48060E+01  1.93648E-08  1.0E-07
  8.750E-03  5.83057E-09  4.14609E-16  1.48060E+01  1.99344E-08  1.0E-07
  9.000E-03  6.16850E-09  4.14609E-16  1.48060E+01  2.05039E-08  1.0E-07
  9.250E-03  6.51596E-09  4.14609E-16  1.48060E+01  2.10735E-08  1.0E-07
  9.500E-03  6.87293E-09  4.14609E-16  1.48060E+01  2.16430E-08  1.0E-07
  9.750E-03  7.23942E-09  4.14609E-16  1.48060E+01  2.22126E-08  1.0E-07
  1.000E-02  7.61544E-09  4.14609E-16  1.48060E+01  2.27822E-08  1.0E-07
  1.250E-02  1.18991E-08  4.14609E-16  1.48059E+01  2.84777E-08  1.0E-07
  1.500E-02  1.71347E-08  4.14609E-16  1.48059E+01  3.41732E-08  1.0E-07
  1.750E-02  2.33223E-08  4.14608E-16  1.48059E+01  3.98688E-08  1.0E-07
  2.000E-02  3.04617E-08  4.14608E-16  1.48059E+01  4.55643E-08  1.0E-07
  2.250E-02  3.85531E-08  4.14608E-16  1.48059E+01  5.12599E-08  1.0E-07
  2.500E-02  4.75965E-08  4.14608E-16  1.48059E+01  5.69555E-08  1.0E-07
  2.750E-02  5.75917E-08  4.14608E-16  1.48059E+01  6.26510E-08  1.0E-07
  3.000E-02  6.85389E-08  4.14607E-16  1.48059E+01  6.83466E-08  1.0E-07
  3.250E-02  8.04380E-08  4.14607E-16  1.48059E+01  7.40422E-08  1.0E-07
  3.500E-02  9.32891E-08  4.14607E-16  1.48059E+01  7.97378E-08  1.0E-07
  3.750E-02  1.07092E-07  4.14606E-16  1.48059E+01  8.54333E-08  1.0E-07
  4.000E-02  1.21847E-07  4.14606E-16  1.48058E+01  9.11289E-08  1.0E-07
  4.250E-02  1.37554E-07  4.14605E-16  1.48058E+01  9.68245E-08  1.0E-07
  4.500E-02  1.54213E-07  4.14605E-16  1.48058E+01  1.02520E-07  1.0E-07
  4.750E-02  1.71823E-07  4.14605E-16  1.48058E+01  1.08216E-07  1.0E-07
  5.000E-02  1.90386E-07  4.14604E-16  1.48058E+01  1.13911E-07  1.0E-07
  5.250E-02  2.09900E-07  4.14604E-16  1.48058E+01  1.19607E-07  1.0E-07
  5.500E-02  2.30367E-07  4.14603E-16  1.48057E+01  1.25303E-07  1.0E-07
  5.750E-02  2.51785E-07  4.14603E-16  1.48057E+01  1.30998E-07  1.0E-07
  6.000E-02  2.74156E-07  4.14602E-16  1.48057E+01  1.36694E-07  1.0E-07
  6.250E-02  2.97478E-07  4.14601E-16  1.48057E+01  1.42390E-07  1.0E-07
  6.500E-02  3.21752E-07  4.14601E-16  1.48057E+01  1.48085E-07  1.0E-07
  6.750E-02  3.46978E-07  4.14600E-16  1.48056E+01  1.53781E-07  1.0E-07
  7.000E-02  3.73156E-07  4.14599E-16  1.48056E+01  1.59477E-07  1.0E-07
  7.250E-02  4.00286E-07  4.14599E-16  1.48056E+01  1.65173E-07  1.0E-07
  7.500E-02  4.28368E-07  4.14598E-16  1.48056E+01  1.70868E-07  1.0E-07
  7.750E-02  4.57402E-07  4.14597E-16  1.48055E+01  1.76564E-07  1.0E-07
  8.000E-02  4.87388E-07  4.14596E-16  1.48055E+01  1.82260E-07  1.0E-07
  8.250E-02  5.18325E-07  4.14596E-16  1.48055E+01  1.87956E-07  1.0E-07
  8.500E-02  5.50215E-07  4.14595E-16  1.48055E+01  1.93652E-07  1.0E-07
  8.750E-02  5.83057E-07  4.14594E-16  1.48054E+01  1.99347E-07  1.0E-07
  9.000E-02  6.16850E-07  4.14593E-16  1.48054E+01  2.05043E-07  1.0E-07
  9.250E-02  6.51596E-07  4.14592E-16  1.48054E+01  2.10739E-07  1.0E-07
  9.500E-02  6.87293E-07  4.14591E-16  1.48053E+01  2.16435E-07  1.0E-07
  9.750E-02  7.23942E-07  4.14590E-16  1.48053E+01  2.22131E-07  1.0E-07
  1.000E-01  7.61543E-07  4.14589E-16  1.48053E+01  2.27827E-07  1.0E-07
  1.250E-01  1.18991E-06  4.14578E-16  1.48049E+01  2.84787E-07  1.0E-07
  1.500E-01  1.71347E-06  4.14565E-16  1.48044E+01  3.41750E-07  1.0E-07
  1.750E-01  2.33223E-06  4.14549E-16  1.48038E+01  3.98716E-07  1.0E-07
  2.000E-01  3.04617E-06  4.14530E-16  1.48031E+01  4.55686E-07  1.0E-07
  2.250E-01  3.85531E-06  4.14509E-16  1.48024E+01  5.12659E-07  1.0E-07
  2.500E-01  4.75964E-06  4.14486E-16  1.48016E+01  5.69637E-07  1.0E-07
  2.750E-01  5.75916E-06  4.14460E-16  1.48006E+01  6.26620E-07  1.0E-07
  3.000E-01  6.85388E-06  4.14432E-16  1.47996E+01  6.83609E-07  1.0E-07
  3.250E-01  8.04378E-06  4.14401E-16  1.47985E+01  7.40603E-07  1.0E-07
  3.500E-01  9.32888E-06  4.14368E-16  1.47974E+01  7.97604E-07  1.0E-07
  3.750E-01  1.07092E-05  4.14332E-16  1.47961E+01  8.54612E-07  1.0E-07
  4.000E-01  1.21846E-05  4.14294E-16  1.47947E+01  9.11628E-07  1.0E-07
  4.250E-01  1.37553E-05  4.14254E-16  1.47933E+01  9.68651E-07  1.0E-07
  4.500E-01  1.54212E-05  4.14211E-16  1.47917E+01  1.02568E-06  1.0E-07
  4.750E-01  1.71822E-05  4.14165E-16  1.47901E+01  1.08272E-06  1.0E-07
  5.000E-01  1.90385E-05  4.14118E-16  1.47884E+01  1.13977E-06  1.0E-07
  5.250E-01  2.09899E-05  4.14067E-16  1.47866E+01  1.19684E-06  1.0E-07
  5.500E-01  2.30365E-05  4.14014E-16  1.47847E+01  1.25391E-06  1.0E-07
  5.750E-01  2.51783E-05  4.13959E-16  1.47828E+01  1.31099E-06  1.0E-07
  6.000E-01  2.74153E-05  4.13902E-16  1.47807E+01  1.36808E-06  1.0E-07
  6.250E-01  2.97475E-05  4.13841E-16  1.47785E+01  1.42519E-06  1.0E-07
  6.500E-01  3.21749E-05  4.13779E-16  1.47763E+01  1.48231E-06  1.0E-07
  6.750E-01  3.46974E-05  4.13714E-16  1.47740E+01  1.53944E-06  1.0E-07
  7.000E-01  3.73152E-05  4.13646E-16  1.47716E+01  1.59658E-06  1.0E-07
  7.250E-01  4.00281E-05  4.13577E-16  1.47691E+01  1.65374E-06  1.0E-07
  7.500E-01  4.28362E-05  4.13504E-16  1.47665E+01  1.71091E-06  1.0E-07
  7.750E-01  4.57395E-05  4.13430E-16  1.47638E+01  1.76810E-06  1.0E-07
  8.000E-01  4.87380E-05  4.13352E-16  1.47611E+01  1.82531E-06  1.0E-07
  8.250E-01  5.18317E-05  4.13273E-16  1.47582E+01  1.88253E-06  1.0E-07
  8.500E-01  5.50205E-05  4.13191E-16  1.47553E+01  1.93976E-06  1.0E-07
  8.750E-01  5.83045E-05  4.13106E-16  1.47523E+01  1.99702E-06  1.0E-07
  9.000E-01  6.16838E-05  4.13020E-16  1.47492E+01  2.05429E-06  1.0E-07
  9.250E-01  6.51582E-05  4.12930E-16  1.47460E+01  2.11157E-06  1.0E-07
  9.500E-01  6.87277E-05  4.12839E-16  1.47427E+01  2.16888E-06  1.0E-07
  9.750E-01  7.23925E-05  4.12744E-16  1.47394E+01  2.22621E-06  1.0E-07
  1.000E+00  7.61524E-05  4.12648E-16  1.47359E+01  2.28355E-06  1.0E-07
  1.100E+00  9.21439E-05  4.12238E-16  1.47213E+01  2.51314E-06  1.0E-07
  1.200E+00  1.09658E-04  4.11789E-16  1.47053E+01  2.74309E-06  1.0E-07
  1.300E+00  1.28695E-04  4.11302E-16  1.46879E+01  2.97341E-06  1.0E-07
  1.400E+00  1.49255E-04  4.10778E-16  1.46691E+01  3.20415E-06  1.0E-07
  1.500E+00  1.71338E-04  4.10215E-16  1.46490E+01  3.43534E-06  1.0E-07
  1.600E+00  1.94942E-04  4.09615E-16  1.46276E+01  3.66702E-06  1.0E-07
  1.700E+00  2.20070E-04  4.08977E-16  1.46048E+01  3.89920E-06  1.0E-07
  1.800E+00  2.46720E-04  4.08303E-16  1.45807E+01  4.13193E-06  1.0E-07
  1.900E+00  2.74892E-04  4.07591E-16  1.45553E+01  4.36524E-06  1.0E-07
  2.000E+00  3.04586E-04  4.06843E-16  1.45286E+01  4.59915E-06  1.0E-07
  2.100E+00  3.35803E-04  4.06058E-16  1.45006E+01  4.83371E-06  1.0E-07
  2.200E+00  3.68542E-04  4.05238E-16  1.44713E+01  5.06894E-06  1.0E-07
  2.300E+00  4.02802E-04  4.04382E-16  1.44407E+01  5.30487E-06  1.0E-07
  2.400E+00  4.38585E-04  4.03491E-16  1.44089E+01  5.54154E-06  1.0E-07
  2.500E+00  4.75889E-04  4.02565E-16  1.43758E+01  5.77898E-06  1.0E-07
  2.600E+00  5.14715E-04  4.01604E-16  1.43415E+01  6.01722E-06  1.0E-07
  2.700E+00  5.55063E-04  4.00608E-16  1.43060E+01  6.25630E-06  1.0E-07
  2.800E+00  5.96931E-04  3.99579E-16  1.42692E+01  6.49624E-06  1.0E-07
  2.900E+00  6.40321E-04  3.98517E-16  1.42313E+01  6.73707E-06  1.0E-07
  3.000E+00  6.85233E-04  3.97421E-16  1.41922E+01  6.97884E-06  1.0E-07
  3.100E+00  7.31665E-04  3.96293E-16  1.41519E+01  7.22157E-06  1.0E-07
  3.200E+00  7.79618E-04  3.95133E-16  1.41104E+01  7.46529E-06  1.0E-07
  3.300E+00  8.29092E-04  3.93940E-16  1.40679E+01  7.71004E-06  1.0E-07
  3.400E+00  8.80086E-04  3.92717E-16  1.40242E+01  7.95585E-06  1.0E-07
  3.500E+00  9.32601E-04  3.91462E-16  1.39794E+01  8.20274E-06  1.0E-07
  3.600E+00  9.86636E-04  3.90177E-16  1.39335E+01  8.45076E-06  1.0E-07
  3.700E+00  1.04219E-03  3.88862E-16  1.38865E+01  8.69993E-06  1.0E-07
  3.800E+00  1.09927E-03  3.87518E-16  1.38385E+01  8.95029E-06  1.0E-07
  3.900E+00  1.15786E-03  3.86144E-16  1.37895E+01  9.20187E-06  1.0E-07
  4.000E+00  1.21797E-03  3.84742E-16  1.37394E+01  9.45469E-06  1.0E-07
  4.100E+00  1.27961E-03  3.83312E-16  1.36883E+01  9.70880E-06  1.0E-07
  4.200E+00  1.34276E-03  3.81854E-16  1.36363E+01  9.96422E-06  1.0E-07
  4.300E+00  1.40743E-03  3.80370E-16  1.35833E+01  1.02210E-05  1.0E-07
  4.400E+00  1.47362E-03  3.78859E-16  1.35293E+01  1.04791E-05  1.0E-07
  4.500E+00  1.54133E-03  3.77322E-16  1.34744E+01  1.07387E-05  1.0E-07
  4.600E+00  1.61056E-03  3.75759E-16  1.34186E+01  1.09997E-05  1.0E-07
  4.700E+00  1.68131E-03  3.74172E-16  1.33619E+01  1.12622E-05  1.0E-07
  4.800E+00  1.75357E-03  3.72560E-16  1.33044E+01  1.15261E-05  1.0E-07
  4.900E+00  1.82735E-03  3.70925E-16  1.32460E+01  1.17917E-05  1.0E-07
  5.000E+00  1.90265E-03  3.69266E-16  1.31867E+01  1.20588E-05  1.0E-07
  5.100E+00  1.97947E-03  3.67584E-16  1.31267E+01  1.23274E-05  1.0E-07
  5.200E+00  2.05780E-03  3.65881E-16  1.30658E+01  1.25978E-05  1.0E-07
  5.300E+00  2.13765E-03  3.64156E-16  1.30042E+01  1.28698E-05  1.0E-07
  5.400E+00  2.21902E-03  3.62409E-16  1.29419E+01  1.31434E-05  1.0E-07
  5.500E+00  2.30190E-03  3.60643E-16  1.28788E+01  1.34189E-05  1.0E-07
  5.600E+00  2.38630E-03  3.58856E-16  1.28150E+01  1.36960E-05  1.0E-07
  5.700E+00  2.47222E-03  3.57050E-16  1.27505E+01  1.39750E-05  1.0E-07
  5.800E+00  2.55965E-03  3.55225E-16  1.26853E+01  1.42558E-05  1.0E-07
  5.900E+00  2.64859E-03  3.53383E-16  1.26195E+01  1.45384E-05  1.0E-07
  6.000E+00  2.73905E-03  3.51522E-16  1.25531E+01  1.48230E-05  1.0E-07
  6.100E+00  2.83103E-03  3.49644E-16  1.24860E+01  1.51094E-05  1.0E-07
  6.200E+00  2.92452E-03  3.47750E-16  1.24184E+01  1.53978E-05  1.0E-07
  6.300E+00  3.01952E-03  3.45840E-16  1.23502E+01  1.56882E-05  1.0E-07
  6.400E+00  3.11604E-03  3.43915E-16  1.22814E+01  1.59806E-05  1.0E-07
  6.500E+00  3.21407E-03  3.41975E-16  1.22121E+01  1.62751E-05  1.0E-07
  6.600E+00  3.31362E-03  3.40020E-16  1.21423E+01  1.65716E-05  1.0E-07
  6.700E+00  3.41468E-03  3.38052E-16  1.20721E+01  1.68703E-05  1.0E-07
  6.800E+00  3.51725E-03  3.36071E-16  1.20013E+01  1.71710E-05  1.0E-07
  6.900E+00  3.62133E-03  3.34077E-16  1.19301E+01  1.74740E-05  1.0E-07
  7.000E+00  3.72692E-03  3.32071E-16  1.18585E+01  1.77791E-05  1.0E-07
  7.100E+00  3.83403E-03  3.30054E-16  1.17864E+01  1.80865E-05  1.0E-07
  7.200E+00  3.94265E-03  3.28026E-16  1.17140E+01  1.83962E-05  1.0E-07
  7.300E+00  4.05278E-03  3.25987E-16  1.16412E+01  1.87081E-05  1.0E-07
  7.400E+00  4.16442E-03  3.23939E-16  1.15681E+01  1.90224E-05  1.0E-07
  7.500E+00  4.27757E-03  3.21882E-16  1.14946E+01  1.93390E-05  1.0E-07
  7.600E+00  4.39223E-03  3.19815E-16  1.14208E+01  1.96580E-05  1.0E-07
  7.700E+00  4.50840E-03  3.17741E-16  1.13467E+01  1.99795E-05  1.0E-07
  7.800E+00  4.62608E-03  3.15659E-16  1.12724E+01  2.03033E-05  1.0E-07
  7.900E+00  4.74527E-03  3.13569E-16  1.11978E+01  2.06297E-05  1.0E-07
  8.000E+00  4.86597E-03  3.11473E-16  1.11229E+01  2.09586E-05  1.0E-07
  8.100E+00  4.98817E-03  3.09371E-16  1.10478E+01  2.12900E-05  1.0E-07
  8.200E+00  5.11188E-03  3.07263E-16  1.09726E+01  2.16240E-05  1.0E-07
  8.300E+00  5.23711E-03  3.05150E-16  1.08971E+01  2.19606E-05  1.0E-07
  8.400E+00  5.36383E-03  3.03033E-16  1.08215E+01  2.22998E-05  1.0E-07
  8.500E+00  5.49207E-03  3.00911E-16  1.07457E+01  2.26417E-05  1.0E-07
  8.600E+00  5.62181E-03  2.98786E-16  1.06698E+01  2.29862E-05  1.0E-07
  8.700E+00  5.75306E-03  2.96657E-16  1.05938E+01  2.33335E-05  1.0E-07
  8.800E+00  5.88581E-03  2.94526E-16  1.05177E+01  2.36836E-05  1.0E-07
  8.900E+00  6.02007E-03  2.92392E-16  1.04415E+01  2.40364E-05  1.0E-07
  9.000E+00  6.15583E-03  2.90257E-16  1.03653E+01  2.43920E-05  1.0E-07
  9.100E+00  6.29310E-03  2.88120E-16  1.02889E+01  2.47505E-05  1.0E-07
  9.200E+00  6.43187E-03  2.85982E-16  1.02126E+01  2.51118E-05  1.0E-07
  9.300E+00  6.57214E-03  2.83844E-16  1.01363E+01  2.54760E-05  1.0E-07
  9.400E+00  6.71392E-03  2.81706E-16  1.00599E+01  2.58432E-05  1.0E-07
  9.500E+00  6.85720E-03  2.79568E-16  9.98355E+00  2.62133E-05  1.0E-07
  9.600E+00  7.00198E-03  2.77431E-16  9.90723E+00  2.65864E-05  1.0E-07
  9.700E+00  7.14827E-03  2.75295E-16  9.83095E+00  2.69625E-05  1.0E-07
  9.800E+00  7.29605E-03  2.73160E-16  9.75473E+00  2.73416E-05  1.0E-07
  9.900E+00  7.44534E-03  2.71028E-16  9.67858E+00  2.77238E-05  1.0E-07
  1.000E+01  7.59612E-03  2.68898E-16  9.60251E+00  2.81091E-05  1.0E-07
  1.025E+01  7.97965E-03  2.63585E-16  9.41281E+00  2.90861E-05  1.0E-07
  1.050E+01  8.37255E-03  2.58296E-16  9.22391E+00  3.00829E-05  1.0E-07
  1.075E+01  8.77480E-03  2.53034E-16  9.03602E+00  3.11002E-05  1.0E-07
  1.100E+01  9.18641E-03  2.47806E-16  8.84932E+00  3.21381E-05  1.0E-07
  1.125E+01  9.60736E-03  2.42616E-16  8.66397E+00  3.31973E-05  1.0E-07
  1.150E+01  1.00376E-02  2.37468E-16  8.48015E+00  3.42779E-05  1.0E-07
  1.175E+01  1.04773E-02  2.32367E-16  8.29799E+00  3.53805E-05  1.0E-07
  1.200E+01  1.09262E-02  2.27317E-16  8.11764E+00  3.65053E-05  1.0E-07
  1.225E+01  1.13844E-02  2.22321E-16  7.93924E+00  3.76528E-05  1.0E-07
  1.250E+01  1.18520E-02  2.17383E-16  7.76289E+00  3.88232E-05  1.0E-07
  1.275E+01  1.23288E-02  2.12505E-16  7.58871E+00  4.00170E-05  1.0E-07
  1.300E+01  1.28150E-02  2.07692E-16  7.41680E+00  4.12343E-05  1.0E-07
  1.325E+01  1.33104E-02  2.02944E-16  7.24725E+00  4.24755E-05  1.0E-07
  1.350E+01  1.38150E-02  1.98264E-16  7.08015E+00  4.37409E-05  1.0E-07
  1.375E+01  1.43290E-02  1.93655E-16  6.91556E+00  4.50308E-05  1.0E-07
  1.400E+01  1.48521E-02  1.89119E-16  6.75356E+00  4.63453E-05  1.0E-07
  1.425E+01  1.53845E-02  1.84656E-16  6.59419E+00  4.76848E-05  1.0E-07
  1.450E+01  1.59262E-02  1.80269E-16  6.43752E+00  4.90493E-05  1.0E-07
  1.475E+01  1.64770E-02  1.75958E-16  6.28358E+00  5.04392E-05  1.0E-07
  1.500E+01  1.70371E-02  1.71725E-16  6.13240E+00  5.18545E-05  1.0E-07
