 #
 # Subroutine ELSEPA. Elastic scattering of electrons and positrons
 #                    by neutral atoms and positive ions
 #
 # Projectile: electron
 # Kinetic energy = 2.20000E+04 eV = 8.08485E+02 a.u.
 #
 # Element: Hg,  Z =  80,  atomic weight = 2.00590E+02 g/mol
 #
 # Nuclear model: Fermi distribution
 #                Average radius = 6.26355E-13 cm
 #                Skin thickness = 5.46000E-14 cm
 #
 # Number of electrons = 80
 #
 # Electron density: analytical TFM model
 #                   A1 =  1.00000D-01 ,   ALPHA1 = 2.92015D+01
 #                   A2 =  5.50000D-01 ,   ALPHA2 = 5.84029D+00
 #                   A3 =  3.50000D-01 ,   ALPHA3 = 1.46007D+00
 #                   Volume integral = 8.00000E+01
 #
 # Furness-McCarthy exchange potential
 #
 # Total elastic cross section = 7.43055E-17 cm**2 = 2.65350E+00 a0**2
 # 1st transport cross section = 1.51107E-18 cm**2 = 5.39612E-02 a0**2
 # 2nd transport cross section = 2.80710E-18 cm**2 = 1.00243E-01 a0**2
 #
 #
 # Differential cross section:                       MU=(1-COS(THETA))/2
 #
 #  THETA        MU          DCS          DCS        Sherman      error
 #  (deg)                 (cm**2/sr)   (a0**2/sr)    function
 #----------------------------------------------------------------------
  0.000E+00  0.00000E+00  1.70509E-14  6.08900E+02  0.00000E+00  1.0E-07
  1.000E-04  7.61557E-13  1.70509E-14  6.08900E+02  8.35855E-10  1.0E-07
  1.250E-04  1.18994E-12  1.70509E-14  6.08900E+02  1.04482E-09  1.0E-07
  1.500E-04  1.71346E-12  1.70509E-14  6.08900E+02  1.25378E-09  1.0E-07
  1.750E-04  2.33225E-12  1.70509E-14  6.08900E+02  1.46275E-09  1.0E-07
  2.000E-04  3.04617E-12  1.70509E-14  6.08900E+02  1.67171E-09  1.0E-07
  2.250E-04  3.85530E-12  1.70509E-14  6.08900E+02  1.88067E-09  1.0E-07
  2.500E-04  4.75964E-12  1.70509E-14  6.08900E+02  2.08964E-09  1.0E-07
  2.750E-04  5.75917E-12  1.70509E-14  6.08900E+02  2.29860E-09  1.0E-07
  3.000E-04  6.85391E-12  1.70509E-14  6.08900E+02  2.50756E-09  1.0E-07
  3.250E-04  8.04379E-12  1.70509E-14  6.08900E+02  2.71653E-09  1.0E-07
  3.500E-04  9.32893E-12  1.70509E-14  6.08900E+02  2.92549E-09  1.0E-07
  3.750E-04  1.07092E-11  1.70509E-14  6.08900E+02  3.13445E-09  1.0E-07
  4.000E-04  1.21847E-11  1.70509E-14  6.08900E+02  3.34342E-09  1.0E-07
  4.250E-04  1.37554E-11  1.70509E-14  6.08900E+02  3.55238E-09  1.0E-07
  4.500E-04  1.54213E-11  1.70509E-14  6.08900E+02  3.76135E-09  1.0E-07
  4.750E-04  1.71823E-11  1.70509E-14  6.08900E+02  3.97031E-09  1.0E-07
  5.000E-04  1.90386E-11  1.70509E-14  6.08900E+02  4.17927E-09  1.0E-07
  5.250E-04  2.09900E-11  1.70509E-14  6.08900E+02  4.38824E-09  1.0E-07
  5.500E-04  2.30367E-11  1.70509E-14  6.08900E+02  4.59720E-09  1.0E-07
  5.750E-04  2.51785E-11  1.70509E-14  6.08900E+02  4.80616E-09  1.0E-07
  6.000E-04  2.74156E-11  1.70509E-14  6.08900E+02  5.01513E-09  1.0E-07
  6.250E-04  2.97478E-11  1.70509E-14  6.08900E+02  5.22409E-09  1.0E-07
  6.500E-04  3.21752E-11  1.70509E-14  6.08900E+02  5.43306E-09  1.0E-07
  6.750E-04  3.46979E-11  1.70509E-14  6.08900E+02  5.64202E-09  1.0E-07
  7.000E-04  3.73157E-11  1.70509E-14  6.08900E+02  5.85098E-09  1.0E-07
  7.250E-04  4.00286E-11  1.70509E-14  6.08900E+02  6.05995E-09  1.0E-07
  7.500E-04  4.28368E-11  1.70509E-14  6.08900E+02  6.26891E-09  1.0E-07
  7.750E-04  4.57402E-11  1.70509E-14  6.08900E+02  6.47787E-09  1.0E-07
  8.000E-04  4.87388E-11  1.70509E-14  6.08900E+02  6.68684E-09  1.0E-07
  8.250E-04  5.18325E-11  1.70509E-14  6.08900E+02  6.89580E-09  1.0E-07
  8.500E-04  5.50215E-11  1.70509E-14  6.08900E+02  7.10477E-09  1.0E-07
  8.750E-04  5.83057E-11  1.70509E-14  6.08900E+02  7.31373E-09  1.0E-07
  9.000E-04  6.16850E-11  1.70509E-14  6.08900E+02  7.52269E-09  1.0E-07
  9.250E-04  6.51595E-11  1.70509E-14  6.08900E+02  7.73166E-09  1.0E-07
  9.500E-04  6.87293E-11  1.70509E-14  6.08900E+02  7.94062E-09  1.0E-07
  9.750E-04  7.23943E-11  1.70509E-14  6.08900E+02  8.14958E-09  1.0E-07
  1.000E-03  7.61544E-11  1.70509E-14  6.08900E+02  8.35855E-09  1.0E-07
  1.250E-03  1.18991E-10  1.70509E-14  6.08900E+02  1.04482E-08  1.0E-07
  1.500E-03  1.71347E-10  1.70509E-14  6.08900E+02  1.25378E-08  1.0E-07
  1.750E-03  2.33223E-10  1.70509E-14  6.08899E+02  1.46275E-08  1.0E-07
  2.000E-03  3.04617E-10  1.70509E-14  6.08899E+02  1.67171E-08  1.0E-07
  2.250E-03  3.85531E-10  1.70509E-14  6.08899E+02  1.88068E-08  1.0E-07
  2.500E-03  4.75965E-10  1.70509E-14  6.08898E+02  2.08964E-08  1.0E-07
  2.750E-03  5.75917E-10  1.70509E-14  6.08898E+02  2.29860E-08  1.0E-07
  3.000E-03  6.85389E-10  1.70509E-14  6.08897E+02  2.50757E-08  1.0E-07
  3.250E-03  8.04380E-10  1.70509E-14  6.08897E+02  2.71654E-08  1.0E-07
  3.500E-03  9.32891E-10  1.70508E-14  6.08896E+02  2.92550E-08  1.0E-07
  3.750E-03  1.07092E-09  1.70508E-14  6.08896E+02  3.13447E-08  1.0E-07
  4.000E-03  1.21847E-09  1.70508E-14  6.08895E+02  3.34343E-08  1.0E-07
  4.250E-03  1.37554E-09  1.70508E-14  6.08895E+02  3.55240E-08  1.0E-07
  4.500E-03  1.54213E-09  1.70508E-14  6.08894E+02  3.76137E-08  1.0E-07
  4.750E-03  1.71823E-09  1.70507E-14  6.08893E+02  3.97033E-08  1.0E-07
  5.000E-03  1.90386E-09  1.70507E-14  6.08893E+02  4.17930E-08  1.0E-07
  5.250E-03  2.09900E-09  1.70507E-14  6.08892E+02  4.38827E-08  1.0E-07
  5.500E-03  2.30367E-09  1.70507E-14  6.08891E+02  4.59724E-08  1.0E-07
  5.750E-03  2.51785E-09  1.70507E-14  6.08890E+02  4.80621E-08  1.0E-07
  6.000E-03  2.74156E-09  1.70506E-14  6.08889E+02  5.01518E-08  1.0E-07
  6.250E-03  2.97478E-09  1.70506E-14  6.08888E+02  5.22415E-08  1.0E-07
  6.500E-03  3.21752E-09  1.70506E-14  6.08887E+02  5.43312E-08  1.0E-07
  6.750E-03  3.46978E-09  1.70506E-14  6.08886E+02  5.64209E-08  1.0E-07
  7.000E-03  3.73156E-09  1.70505E-14  6.08885E+02  5.85106E-08  1.0E-07
  7.250E-03  4.00286E-09  1.70505E-14  6.08884E+02  6.06003E-08  1.0E-07
  7.500E-03  4.28368E-09  1.70505E-14  6.08883E+02  6.26901E-08  1.0E-07
  7.750E-03  4.57402E-09  1.70504E-14  6.08882E+02  6.47798E-08  1.0E-07
  8.000E-03  4.87388E-09  1.70504E-14  6.08881E+02  6.68695E-08  1.0E-07
  8.250E-03  5.18326E-09  1.70504E-14  6.08879E+02  6.89593E-08  1.0E-07
  8.500E-03  5.50215E-09  1.70503E-14  6.08878E+02  7.10490E-08  1.0E-07
  8.750E-03  5.83057E-09  1.70503E-14  6.08877E+02  7.31388E-08  1.0E-07
  9.000E-03  6.16850E-09  1.70503E-14  6.08876E+02  7.52286E-08  1.0E-07
  9.250E-03  6.51596E-09  1.70502E-14  6.08874E+02  7.73184E-08  1.0E-07
  9.500E-03  6.87293E-09  1.70502E-14  6.08873E+02  7.94082E-08  1.0E-07
  9.750E-03  7.23942E-09  1.70501E-14  6.08871E+02  8.14979E-08  1.0E-07
  1.000E-02  7.61544E-09  1.70501E-14  6.08870E+02  8.35878E-08  1.0E-07
  1.250E-02  1.18991E-08  1.70496E-14  6.08853E+02  1.04486E-07  1.0E-07
  1.500E-02  1.71347E-08  1.70490E-14  6.08832E+02  1.25386E-07  1.0E-07
  1.750E-02  2.33223E-08  1.70483E-14  6.08807E+02  1.46287E-07  1.0E-07
  2.000E-02  3.04617E-08  1.70475E-14  6.08778E+02  1.67189E-07  1.0E-07
  2.250E-02  3.85531E-08  1.70466E-14  6.08746E+02  1.88093E-07  1.0E-07
  2.500E-02  4.75965E-08  1.70456E-14  6.08710E+02  2.09000E-07  1.0E-07
  2.750E-02  5.75917E-08  1.70445E-14  6.08670E+02  2.29908E-07  1.0E-07
  3.000E-02  6.85389E-08  1.70433E-14  6.08626E+02  2.50818E-07  1.0E-07
  3.250E-02  8.04380E-08  1.70419E-14  6.08578E+02  2.71732E-07  1.0E-07
  3.500E-02  9.32891E-08  1.70405E-14  6.08527E+02  2.92648E-07  1.0E-07
  3.750E-02  1.07092E-07  1.70389E-14  6.08472E+02  3.13567E-07  1.0E-07
  4.000E-02  1.21847E-07  1.70373E-14  6.08413E+02  3.34489E-07  1.0E-07
  4.250E-02  1.37554E-07  1.70355E-14  6.08350E+02  3.55415E-07  1.0E-07
  4.500E-02  1.54213E-07  1.70337E-14  6.08283E+02  3.76344E-07  1.0E-07
  4.750E-02  1.71823E-07  1.70317E-14  6.08213E+02  3.97277E-07  1.0E-07
  5.000E-02  1.90386E-07  1.70296E-14  6.08139E+02  4.18214E-07  1.0E-07
  5.250E-02  2.09900E-07  1.70274E-14  6.08061E+02  4.39156E-07  1.0E-07
  5.500E-02  2.30367E-07  1.70251E-14  6.07979E+02  4.60102E-07  1.0E-07
  5.750E-02  2.51785E-07  1.70227E-14  6.07893E+02  4.81053E-07  1.0E-07
  6.000E-02  2.74156E-07  1.70202E-14  6.07804E+02  5.02009E-07  1.0E-07
  6.250E-02  2.97478E-07  1.70176E-14  6.07711E+02  5.22970E-07  1.0E-07
  6.500E-02  3.21752E-07  1.70149E-14  6.07614E+02  5.43936E-07  1.0E-07
  6.750E-02  3.46978E-07  1.70121E-14  6.07513E+02  5.64908E-07  1.0E-07
  7.000E-02  3.73156E-07  1.70092E-14  6.07409E+02  5.85886E-07  1.0E-07
  7.250E-02  4.00286E-07  1.70061E-14  6.07301E+02  6.06870E-07  1.0E-07
  7.500E-02  4.28368E-07  1.70030E-14  6.07189E+02  6.27860E-07  1.0E-07
  7.750E-02  4.57402E-07  1.69998E-14  6.07073E+02  6.48857E-07  1.0E-07
  8.000E-02  4.87388E-07  1.69964E-14  6.06953E+02  6.69860E-07  1.0E-07
  8.250E-02  5.18325E-07  1.69930E-14  6.06830E+02  6.90870E-07  1.0E-07
  8.500E-02  5.50215E-07  1.69894E-14  6.06703E+02  7.11887E-07  1.0E-07
  8.750E-02  5.83057E-07  1.69858E-14  6.06572E+02  7.32912E-07  1.0E-07
  9.000E-02  6.16850E-07  1.69820E-14  6.06438E+02  7.53944E-07  1.0E-07
  9.250E-02  6.51596E-07  1.69781E-14  6.06300E+02  7.74984E-07  1.0E-07
  9.500E-02  6.87293E-07  1.69741E-14  6.06158E+02  7.96032E-07  1.0E-07
  9.750E-02  7.23942E-07  1.69701E-14  6.06012E+02  8.17088E-07  1.0E-07
  1.000E-01  7.61543E-07  1.69659E-14  6.05862E+02  8.38152E-07  1.0E-07
  1.250E-01  1.18991E-06  1.69183E-14  6.04163E+02  1.04931E-06  1.0E-07
  1.500E-01  1.71347E-06  1.68604E-14  6.02096E+02  1.26154E-06  1.0E-07
  1.750E-01  2.33223E-06  1.67924E-14  5.99667E+02  1.47507E-06  1.0E-07
  2.000E-01  3.04617E-06  1.67144E-14  5.96882E+02  1.69010E-06  1.0E-07
  2.250E-01  3.85531E-06  1.66266E-14  5.93748E+02  1.90687E-06  1.0E-07
  2.500E-01  4.75964E-06  1.65294E-14  5.90275E+02  2.12558E-06  1.0E-07
  2.750E-01  5.75916E-06  1.64228E-14  5.86470E+02  2.34645E-06  1.0E-07
  3.000E-01  6.85388E-06  1.63073E-14  5.82345E+02  2.56971E-06  1.0E-07
  3.250E-01  8.04378E-06  1.61831E-14  5.77909E+02  2.79557E-06  1.0E-07
  3.500E-01  9.32888E-06  1.60505E-14  5.73174E+02  3.02424E-06  1.0E-07
  3.750E-01  1.07092E-05  1.59099E-14  5.68152E+02  3.25596E-06  1.0E-07
  4.000E-01  1.21846E-05  1.57616E-14  5.62856E+02  3.49094E-06  1.0E-07
  4.250E-01  1.37553E-05  1.56059E-14  5.57297E+02  3.72940E-06  1.0E-07
  4.500E-01  1.54212E-05  1.54433E-14  5.51490E+02  3.97156E-06  1.0E-07
  4.750E-01  1.71822E-05  1.52741E-14  5.45447E+02  4.21766E-06  1.0E-07
  5.000E-01  1.90385E-05  1.50987E-14  5.39183E+02  4.46790E-06  1.0E-07
  5.250E-01  2.09899E-05  1.49175E-14  5.32712E+02  4.72253E-06  1.0E-07
  5.500E-01  2.30365E-05  1.47308E-14  5.26048E+02  4.98175E-06  1.0E-07
  5.750E-01  2.51783E-05  1.45392E-14  5.19205E+02  5.24581E-06  1.0E-07
  6.000E-01  2.74153E-05  1.43430E-14  5.12198E+02  5.51492E-06  1.0E-07
  6.250E-01  2.97475E-05  1.41426E-14  5.05040E+02  5.78931E-06  1.0E-07
  6.500E-01  3.21749E-05  1.39383E-14  4.97747E+02  6.06922E-06  1.0E-07
  6.750E-01  3.46974E-05  1.37307E-14  4.90331E+02  6.35487E-06  1.0E-07
  7.000E-01  3.73152E-05  1.35200E-14  4.82808E+02  6.64649E-06  1.0E-07
  7.250E-01  4.00281E-05  1.33067E-14  4.75189E+02  6.94432E-06  1.0E-07
  7.500E-01  4.28362E-05  1.30910E-14  4.67490E+02  7.24858E-06  1.0E-07
  7.750E-01  4.57395E-05  1.28735E-14  4.59722E+02  7.55952E-06  1.0E-07
  8.000E-01  4.87380E-05  1.26545E-14  4.51899E+02  7.87736E-06  1.0E-07
  8.250E-01  5.18317E-05  1.24342E-14  4.44033E+02  8.20234E-06  1.0E-07
  8.500E-01  5.50205E-05  1.22130E-14  4.36135E+02  8.53469E-06  1.0E-07
  8.750E-01  5.83045E-05  1.19913E-14  4.28218E+02  8.87465E-06  1.0E-07
  9.000E-01  6.16838E-05  1.17694E-14  4.20292E+02  9.22246E-06  1.0E-07
  9.250E-01  6.51582E-05  1.15475E-14  4.12368E+02  9.57836E-06  1.0E-07
  9.500E-01  6.87277E-05  1.13259E-14  4.04456E+02  9.94258E-06  1.0E-07
  9.750E-01  7.23925E-05  1.11050E-14  3.96565E+02  1.03154E-05  1.0E-07
  1.000E+00  7.61524E-05  1.08849E-14  3.88705E+02  1.06969E-05  1.0E-07
  1.100E+00  9.21439E-05  1.00177E-14  3.57738E+02  1.23160E-05  1.0E-07
  1.200E+00  1.09658E-04  9.18110E-15  3.27863E+02  1.40951E-05  1.0E-07
  1.300E+00  1.28695E-04  8.38495E-15  2.99432E+02  1.60494E-05  1.0E-07
  1.400E+00  1.49255E-04  7.63597E-15  2.72685E+02  1.81942E-05  1.0E-07
  1.500E+00  1.71338E-04  6.93818E-15  2.47767E+02  2.05445E-05  1.0E-07
  1.600E+00  1.94942E-04  6.29339E-15  2.24741E+02  2.31147E-05  1.0E-07
  1.700E+00  2.20070E-04  5.70164E-15  2.03609E+02  2.59189E-05  1.0E-07
  1.800E+00  2.46720E-04  5.16163E-15  1.84325E+02  2.89706E-05  1.0E-07
  1.900E+00  2.74892E-04  4.67115E-15  1.66810E+02  3.22822E-05  1.0E-07
  2.000E+00  3.04586E-04  4.22731E-15  1.50960E+02  3.58653E-05  1.0E-07
  2.100E+00  3.35803E-04  3.82690E-15  1.36661E+02  3.97305E-05  1.0E-07
  2.200E+00  3.68542E-04  3.46648E-15  1.23790E+02  4.38871E-05  1.0E-07
  2.300E+00  4.02802E-04  3.14262E-15  1.12225E+02  4.83429E-05  1.0E-07
  2.400E+00  4.38585E-04  2.85196E-15  1.01845E+02  5.31045E-05  1.0E-07
  2.500E+00  4.75889E-04  2.59128E-15  9.25365E+01  5.81770E-05  1.0E-07
  2.600E+00  5.14715E-04  2.35758E-15  8.41907E+01  6.35640E-05  1.0E-07
  2.700E+00  5.55063E-04  2.14805E-15  7.67084E+01  6.92676E-05  1.0E-07
  2.800E+00  5.96931E-04  1.96015E-15  6.99983E+01  7.52882E-05  1.0E-07
  2.900E+00  6.40321E-04  1.79155E-15  6.39773E+01  8.16249E-05  1.0E-07
  3.000E+00  6.85233E-04  1.64014E-15  5.85705E+01  8.82754E-05  1.0E-07
  3.100E+00  7.31665E-04  1.50405E-15  5.37105E+01  9.52359E-05  1.0E-07
  3.200E+00  7.79618E-04  1.38158E-15  4.93373E+01  1.02501E-04  1.0E-07
  3.300E+00  8.29092E-04  1.27125E-15  4.53971E+01  1.10065E-04  1.0E-07
  3.400E+00  8.80086E-04  1.17170E-15  4.18423E+01  1.17921E-04  1.0E-07
  3.500E+00  9.32601E-04  1.08177E-15  3.86306E+01  1.26059E-04  1.0E-07
  3.600E+00  9.86636E-04  1.00039E-15  3.57244E+01  1.34470E-04  1.0E-07
  3.700E+00  1.04219E-03  9.26633E-16  3.30907E+01  1.43145E-04  1.0E-07
  3.800E+00  1.09927E-03  8.59687E-16  3.07000E+01  1.52072E-04  1.0E-07
  3.900E+00  1.15786E-03  7.98820E-16  2.85264E+01  1.61239E-04  1.0E-07
  4.000E+00  1.21797E-03  7.43391E-16  2.65470E+01  1.70635E-04  1.0E-07
  4.100E+00  1.27961E-03  6.92829E-16  2.47414E+01  1.80245E-04  1.0E-07
  4.200E+00  1.34276E-03  6.46633E-16  2.30917E+01  1.90057E-04  1.0E-07
  4.300E+00  1.40743E-03  6.04357E-16  2.15820E+01  2.00056E-04  1.0E-07
  4.400E+00  1.47362E-03  5.65605E-16  2.01981E+01  2.10228E-04  1.0E-07
  4.500E+00  1.54133E-03  5.30027E-16  1.89276E+01  2.20558E-04  1.0E-07
  4.600E+00  1.61056E-03  4.97313E-16  1.77594E+01  2.31031E-04  1.0E-07
  4.700E+00  1.68131E-03  4.67186E-16  1.66835E+01  2.41632E-04  1.0E-07
  4.800E+00  1.75357E-03  4.39399E-16  1.56912E+01  2.52343E-04  1.0E-07
  4.900E+00  1.82735E-03  4.13734E-16  1.47747E+01  2.63149E-04  1.0E-07
  5.000E+00  1.90265E-03  3.89995E-16  1.39270E+01  2.74033E-04  1.0E-07
  5.100E+00  1.97947E-03  3.68006E-16  1.31417E+01  2.84979E-04  1.0E-07
  5.200E+00  2.05780E-03  3.47611E-16  1.24134E+01  2.95967E-04  1.0E-07
  5.300E+00  2.13765E-03  3.28669E-16  1.17370E+01  3.06981E-04  1.0E-07
  5.400E+00  2.21902E-03  3.11056E-16  1.11080E+01  3.18003E-04  1.0E-07
  5.500E+00  2.30190E-03  2.94657E-16  1.05224E+01  3.29013E-04  1.0E-07
  5.600E+00  2.38630E-03  2.79370E-16  9.97650E+00  3.39994E-04  1.0E-07
  5.700E+00  2.47222E-03  2.65104E-16  9.46705E+00  3.50926E-04  1.0E-07
  5.800E+00  2.55965E-03  2.51776E-16  8.99108E+00  3.61790E-04  1.0E-07
  5.900E+00  2.64859E-03  2.39310E-16  8.54591E+00  3.72566E-04  1.0E-07
  6.000E+00  2.73905E-03  2.27638E-16  8.12910E+00  3.83234E-04  1.0E-07
  6.100E+00  2.83103E-03  2.16699E-16  7.73847E+00  3.93773E-04  1.0E-07
  6.200E+00  2.92452E-03  2.06437E-16  7.37199E+00  4.04164E-04  1.0E-07
  6.300E+00  3.01952E-03  1.96800E-16  7.02785E+00  4.14385E-04  1.0E-07
  6.400E+00  3.11604E-03  1.87742E-16  6.70440E+00  4.24416E-04  1.0E-07
  6.500E+00  3.21407E-03  1.79221E-16  6.40011E+00  4.34234E-04  1.0E-07
  6.600E+00  3.31362E-03  1.71199E-16  6.11361E+00  4.43818E-04  1.0E-07
  6.700E+00  3.41468E-03  1.63638E-16  5.84363E+00  4.53148E-04  1.0E-07
  6.800E+00  3.51725E-03  1.56508E-16  5.58902E+00  4.62200E-04  1.0E-07
  6.900E+00  3.62133E-03  1.49779E-16  5.34870E+00  4.70954E-04  1.0E-07
  7.000E+00  3.72692E-03  1.43422E-16  5.12170E+00  4.79386E-04  1.0E-07
  7.100E+00  3.83403E-03  1.37414E-16  4.90713E+00  4.87475E-04  1.0E-07
  7.200E+00  3.94265E-03  1.31730E-16  4.70416E+00  4.95199E-04  1.0E-07
  7.300E+00  4.05278E-03  1.26349E-16  4.51202E+00  5.02535E-04  1.0E-07
  7.400E+00  4.16442E-03  1.21253E-16  4.33002E+00  5.09462E-04  1.0E-07
  7.500E+00  4.27757E-03  1.16422E-16  4.15751E+00  5.15957E-04  1.0E-07
  7.600E+00  4.39223E-03  1.11840E-16  3.99388E+00  5.21997E-04  1.0E-07
  7.700E+00  4.50840E-03  1.07491E-16  3.83859E+00  5.27562E-04  1.0E-07
  7.800E+00  4.62608E-03  1.03362E-16  3.69111E+00  5.32629E-04  1.0E-07
  7.900E+00  4.74527E-03  9.94373E-17  3.55097E+00  5.37176E-04  1.0E-07
  8.000E+00  4.86597E-03  9.57062E-17  3.41773E+00  5.41182E-04  1.0E-07
  8.100E+00  4.98817E-03  9.21567E-17  3.29097E+00  5.44625E-04  1.0E-07
  8.200E+00  5.11188E-03  8.87780E-17  3.17032E+00  5.47485E-04  1.0E-07
  8.300E+00  5.23711E-03  8.55603E-17  3.05541E+00  5.49740E-04  1.0E-07
  8.400E+00  5.36383E-03  8.24942E-17  2.94592E+00  5.51371E-04  1.0E-07
  8.500E+00  5.49207E-03  7.95710E-17  2.84153E+00  5.52356E-04  1.0E-07
  8.600E+00  5.62181E-03  7.67827E-17  2.74196E+00  5.52677E-04  1.0E-07
  8.700E+00  5.75306E-03  7.41218E-17  2.64694E+00  5.52312E-04  1.0E-07
  8.800E+00  5.88581E-03  7.15810E-17  2.55620E+00  5.51245E-04  1.0E-07
  8.900E+00  6.02007E-03  6.91540E-17  2.46953E+00  5.49455E-04  1.0E-07
  9.000E+00  6.15583E-03  6.68344E-17  2.38670E+00  5.46924E-04  1.0E-07
  9.100E+00  6.29310E-03  6.46165E-17  2.30750E+00  5.43636E-04  1.0E-07
  9.200E+00  6.43187E-03  6.24949E-17  2.23173E+00  5.39572E-04  1.0E-07
  9.300E+00  6.57214E-03  6.04645E-17  2.15923E+00  5.34715E-04  1.0E-07
  9.400E+00  6.71392E-03  5.85205E-17  2.08981E+00  5.29050E-04  1.0E-07
  9.500E+00  6.85720E-03  5.66585E-17  2.02331E+00  5.22561E-04  1.0E-07
  9.600E+00  7.00198E-03  5.48742E-17  1.95959E+00  5.15232E-04  1.0E-07
  9.700E+00  7.14827E-03  5.31637E-17  1.89851E+00  5.07049E-04  1.0E-07
  9.800E+00  7.29605E-03  5.15233E-17  1.83993E+00  4.97998E-04  1.0E-07
  9.900E+00  7.44534E-03  4.99494E-17  1.78373E+00  4.88066E-04  1.0E-07
  1.000E+01  7.59612E-03  4.84388E-17  1.72978E+00  4.77239E-04  1.0E-07
  1.025E+01  7.97965E-03  4.49191E-17  1.60409E+00  4.46182E-04  1.0E-07
  1.050E+01  8.37255E-03  4.17320E-17  1.49028E+00  4.09288E-04  1.0E-07
  1.075E+01  8.77480E-03  3.88394E-17  1.38698E+00  3.66410E-04  1.0E-07
  1.100E+01  9.18641E-03  3.62085E-17  1.29303E+00  3.17425E-04  1.0E-07
  1.125E+01  9.60736E-03  3.38103E-17  1.20739E+00  2.62239E-04  1.0E-07
  1.150E+01  1.00376E-02  3.16200E-17  1.12917E+00  2.00781E-04  1.0E-07
  1.175E+01  1.04773E-02  2.96156E-17  1.05759E+00  1.33009E-04  1.0E-07
  1.200E+01  1.09262E-02  2.77778E-17  9.91962E-01  5.89066E-05  1.0E-07
  1.225E+01  1.13844E-02  2.60896E-17  9.31676E-01 -2.15171E-05  1.0E-07
  1.250E+01  1.18520E-02  2.45362E-17  8.76203E-01 -1.08227E-04  1.0E-07
  1.275E+01  1.23288E-02  2.31043E-17  8.25070E-01 -2.01164E-04  1.0E-07
  1.300E+01  1.28150E-02  2.17823E-17  7.77860E-01 -3.00242E-04  1.0E-07
  1.325E+01  1.33104E-02  2.05598E-17  7.34202E-01 -4.05353E-04  1.0E-07
  1.350E+01  1.38150E-02  1.94275E-17  6.93768E-01 -5.16366E-04  1.0E-07
  1.375E+01  1.43290E-02  1.83773E-17  6.56264E-01 -6.33126E-04  1.0E-07
  1.400E+01  1.48521E-02  1.74017E-17  6.21427E-01 -7.55458E-04  1.0E-07
  1.425E+01  1.53845E-02  1.64943E-17  5.89023E-01 -8.83164E-04  1.0E-07
  1.450E+01  1.59262E-02  1.56492E-17  5.58842E-01 -1.01603E-03  1.0E-07
  1.475E+01  1.64770E-02  1.48610E-17  5.30694E-01 -1.15381E-03  1.0E-07
  1.500E+01  1.70371E-02  1.41249E-17  5.04411E-01 -1.29626E-03  1.0E-07
