 #
 # Subroutine ELSEPA. Elastic scattering of electrons and positrons
 #                    by neutral atoms and positive ions
 #
 # Projectile: electron
 # Kinetic energy = 5.00000E+02 eV = 1.83747E+01 a.u.
 #
 # Element: Hg,  Z =  80,  atomic weight = 2.00590E+02 g/mol
 #
 # Nuclear model: Fermi distribution
 #                Average radius = 6.26355E-13 cm
 #                Skin thickness = 5.46000E-14 cm
 #
 # Number of electrons = 80
 #
 # Electron density: analytical TFM model
 #                   A1 =  1.00000D-01 ,   ALPHA1 = 2.92015D+01
 #                   A2 =  5.50000D-01 ,   ALPHA2 = 5.84029D+00
 #                   A3 =  3.50000D-01 ,   ALPHA3 = 1.46007D+00
 #                   Volume integral = 8.00000E+01
 #
 # Furness-McCarthy exchange potential
 #
 # Correlation-polarization potential (Buckingham):
 #                           Alpha = 5.10000E-24 cm**3
 #                            Bpol = 5.30330E+00
 #
 # Total elastic cross section = 5.66190E-16 cm**2 = 2.02190E+01 a0**2
 # 1st transport cross section = 1.31543E-16 cm**2 = 4.69749E+00 a0**2
 # 2nd transport cross section = 1.60517E-16 cm**2 = 5.73215E+00 a0**2
 #
 #
 # Differential cross section:                       MU=(1-COS(THETA))/2
 #
 #  THETA        MU          DCS          DCS        Sherman      error
 #  (deg)                 (cm**2/sr)   (a0**2/sr)    function
 #----------------------------------------------------------------------
  0.000E+00  0.00000E+00  9.72237E-15  3.47192E+02  0.00000E+00  6.7E-07
  1.000E-04  7.61557E-13  9.72237E-15  3.47192E+02  8.03577E-09  6.7E-07
  1.250E-04  1.18994E-12  9.72237E-15  3.47192E+02  1.00447E-08  6.7E-07
  1.500E-04  1.71346E-12  9.72237E-15  3.47192E+02  1.20537E-08  6.7E-07
  1.750E-04  2.33225E-12  9.72237E-15  3.47192E+02  1.40626E-08  6.7E-07
  2.000E-04  3.04617E-12  9.72237E-15  3.47192E+02  1.60715E-08  6.7E-07
  2.250E-04  3.85530E-12  9.72237E-15  3.47192E+02  1.80805E-08  6.7E-07
  2.500E-04  4.75964E-12  9.72237E-15  3.47192E+02  2.00894E-08  6.7E-07
  2.750E-04  5.75917E-12  9.72237E-15  3.47192E+02  2.20984E-08  6.7E-07
  3.000E-04  6.85391E-12  9.72237E-15  3.47192E+02  2.41073E-08  6.7E-07
  3.250E-04  8.04379E-12  9.72237E-15  3.47192E+02  2.61163E-08  6.7E-07
  3.500E-04  9.32893E-12  9.72237E-15  3.47192E+02  2.81252E-08  6.7E-07
  3.750E-04  1.07092E-11  9.72237E-15  3.47192E+02  3.01342E-08  6.7E-07
  4.000E-04  1.21847E-11  9.72237E-15  3.47192E+02  3.21431E-08  6.7E-07
  4.250E-04  1.37554E-11  9.72237E-15  3.47192E+02  3.41520E-08  6.7E-07
  4.500E-04  1.54213E-11  9.72237E-15  3.47192E+02  3.61610E-08  6.7E-07
  4.750E-04  1.71823E-11  9.72237E-15  3.47192E+02  3.81699E-08  6.7E-07
  5.000E-04  1.90386E-11  9.72237E-15  3.47192E+02  4.01789E-08  6.7E-07
  5.250E-04  2.09900E-11  9.72237E-15  3.47192E+02  4.21878E-08  6.7E-07
  5.500E-04  2.30367E-11  9.72237E-15  3.47192E+02  4.41968E-08  6.7E-07
  5.750E-04  2.51785E-11  9.72237E-15  3.47192E+02  4.62057E-08  6.7E-07
  6.000E-04  2.74156E-11  9.72237E-15  3.47192E+02  4.82146E-08  6.7E-07
  6.250E-04  2.97478E-11  9.72237E-15  3.47192E+02  5.02236E-08  6.7E-07
  6.500E-04  3.21752E-11  9.72237E-15  3.47192E+02  5.22325E-08  6.7E-07
  6.750E-04  3.46979E-11  9.72237E-15  3.47192E+02  5.42415E-08  6.7E-07
  7.000E-04  3.73157E-11  9.72237E-15  3.47192E+02  5.62504E-08  6.7E-07
  7.250E-04  4.00286E-11  9.72237E-15  3.47192E+02  5.82594E-08  6.7E-07
  7.500E-04  4.28368E-11  9.72237E-15  3.47192E+02  6.02683E-08  6.7E-07
  7.750E-04  4.57402E-11  9.72237E-15  3.47192E+02  6.22773E-08  6.7E-07
  8.000E-04  4.87388E-11  9.72237E-15  3.47192E+02  6.42862E-08  6.7E-07
  8.250E-04  5.18325E-11  9.72237E-15  3.47192E+02  6.62951E-08  6.7E-07
  8.500E-04  5.50215E-11  9.72237E-15  3.47192E+02  6.83041E-08  6.7E-07
  8.750E-04  5.83057E-11  9.72237E-15  3.47192E+02  7.03130E-08  6.7E-07
  9.000E-04  6.16850E-11  9.72237E-15  3.47192E+02  7.23220E-08  6.7E-07
  9.250E-04  6.51595E-11  9.72237E-15  3.47192E+02  7.43309E-08  6.7E-07
  9.500E-04  6.87293E-11  9.72237E-15  3.47192E+02  7.63399E-08  6.7E-07
  9.750E-04  7.23943E-11  9.72237E-15  3.47192E+02  7.83488E-08  6.7E-07
  1.000E-03  7.61544E-11  9.72237E-15  3.47192E+02  8.03577E-08  6.7E-07
  1.250E-03  1.18991E-10  9.72236E-15  3.47192E+02  1.00447E-07  6.7E-07
  1.500E-03  1.71347E-10  9.72236E-15  3.47192E+02  1.20537E-07  6.7E-07
  1.750E-03  2.33223E-10  9.72236E-15  3.47192E+02  1.40626E-07  6.7E-07
  2.000E-03  3.04617E-10  9.72236E-15  3.47192E+02  1.60716E-07  6.7E-07
  2.250E-03  3.85531E-10  9.72235E-15  3.47192E+02  1.80805E-07  6.7E-07
  2.500E-03  4.75965E-10  9.72235E-15  3.47191E+02  2.00895E-07  6.7E-07
  2.750E-03  5.75917E-10  9.72235E-15  3.47191E+02  2.20984E-07  6.7E-07
  3.000E-03  6.85389E-10  9.72234E-15  3.47191E+02  2.41074E-07  6.7E-07
  3.250E-03  8.04380E-10  9.72234E-15  3.47191E+02  2.61163E-07  6.7E-07
  3.500E-03  9.32891E-10  9.72233E-15  3.47191E+02  2.81253E-07  6.7E-07
  3.750E-03  1.07092E-09  9.72233E-15  3.47191E+02  3.01342E-07  6.7E-07
  4.000E-03  1.21847E-09  9.72232E-15  3.47190E+02  3.21432E-07  6.7E-07
  4.250E-03  1.37554E-09  9.72232E-15  3.47190E+02  3.41521E-07  6.7E-07
  4.500E-03  1.54213E-09  9.72231E-15  3.47190E+02  3.61611E-07  6.7E-07
  4.750E-03  1.71823E-09  9.72230E-15  3.47190E+02  3.81701E-07  6.7E-07
  5.000E-03  1.90386E-09  9.72230E-15  3.47190E+02  4.01790E-07  6.7E-07
  5.250E-03  2.09900E-09  9.72229E-15  3.47189E+02  4.21880E-07  6.7E-07
  5.500E-03  2.30367E-09  9.72228E-15  3.47189E+02  4.41970E-07  6.7E-07
  5.750E-03  2.51785E-09  9.72227E-15  3.47189E+02  4.62060E-07  6.7E-07
  6.000E-03  2.74156E-09  9.72226E-15  3.47188E+02  4.82149E-07  6.7E-07
  6.250E-03  2.97478E-09  9.72226E-15  3.47188E+02  5.02239E-07  6.7E-07
  6.500E-03  3.21752E-09  9.72225E-15  3.47188E+02  5.22329E-07  6.7E-07
  6.750E-03  3.46978E-09  9.72224E-15  3.47187E+02  5.42419E-07  6.7E-07
  7.000E-03  3.73156E-09  9.72223E-15  3.47187E+02  5.62509E-07  6.7E-07
  7.250E-03  4.00286E-09  9.72222E-15  3.47187E+02  5.82599E-07  6.7E-07
  7.500E-03  4.28368E-09  9.72221E-15  3.47186E+02  6.02689E-07  6.7E-07
  7.750E-03  4.57402E-09  9.72219E-15  3.47186E+02  6.22779E-07  6.7E-07
  8.000E-03  4.87388E-09  9.72218E-15  3.47185E+02  6.42869E-07  6.7E-07
  8.250E-03  5.18326E-09  9.72217E-15  3.47185E+02  6.62959E-07  6.7E-07
  8.500E-03  5.50215E-09  9.72216E-15  3.47185E+02  6.83049E-07  6.7E-07
  8.750E-03  5.83057E-09  9.72215E-15  3.47184E+02  7.03139E-07  6.7E-07
  9.000E-03  6.16850E-09  9.72213E-15  3.47184E+02  7.23229E-07  6.7E-07
  9.250E-03  6.51596E-09  9.72212E-15  3.47183E+02  7.43320E-07  6.7E-07
  9.500E-03  6.87293E-09  9.72211E-15  3.47183E+02  7.63410E-07  6.7E-07
  9.750E-03  7.23942E-09  9.72209E-15  3.47182E+02  7.83500E-07  6.7E-07
  1.000E-02  7.61544E-09  9.72208E-15  3.47182E+02  8.03591E-07  6.6E-07
  1.250E-02  1.18991E-08  9.72191E-15  3.47176E+02  1.00450E-06  6.6E-07
  1.500E-02  1.71347E-08  9.72171E-15  3.47169E+02  1.20541E-06  6.6E-07
  1.750E-02  2.33223E-08  9.72148E-15  3.47160E+02  1.40633E-06  6.6E-07
  2.000E-02  3.04617E-08  9.72120E-15  3.47151E+02  1.60726E-06  6.6E-07
  2.250E-02  3.85531E-08  9.72089E-15  3.47139E+02  1.80820E-06  6.6E-07
  2.500E-02  4.75965E-08  9.72055E-15  3.47127E+02  2.00915E-06  6.6E-07
  2.750E-02  5.75917E-08  9.72017E-15  3.47113E+02  2.21012E-06  6.6E-07
  3.000E-02  6.85389E-08  9.71975E-15  3.47099E+02  2.41109E-06  6.6E-07
  3.250E-02  8.04380E-08  9.71929E-15  3.47082E+02  2.61208E-06  6.6E-07
  3.500E-02  9.32891E-08  9.71880E-15  3.47065E+02  2.81309E-06  6.6E-07
  3.750E-02  1.07092E-07  9.71828E-15  3.47046E+02  3.01412E-06  6.6E-07
  4.000E-02  1.21847E-07  9.71771E-15  3.47026E+02  3.21516E-06  6.6E-07
  4.250E-02  1.37554E-07  9.71711E-15  3.47004E+02  3.41623E-06  6.5E-07
  4.500E-02  1.54213E-07  9.71648E-15  3.46982E+02  3.61731E-06  6.5E-07
  4.750E-02  1.71823E-07  9.71581E-15  3.46958E+02  3.81842E-06  6.5E-07
  5.000E-02  1.90386E-07  9.71510E-15  3.46933E+02  4.01955E-06  6.5E-07
  5.250E-02  2.09900E-07  9.71436E-15  3.46906E+02  4.22071E-06  6.5E-07
  5.500E-02  2.30367E-07  9.71358E-15  3.46878E+02  4.42189E-06  6.5E-07
  5.750E-02  2.51785E-07  9.71276E-15  3.46849E+02  4.62310E-06  6.5E-07
  6.000E-02  2.74156E-07  9.71191E-15  3.46819E+02  4.82434E-06  6.4E-07
  6.250E-02  2.97478E-07  9.71102E-15  3.46787E+02  5.02561E-06  6.4E-07
  6.500E-02  3.21752E-07  9.71010E-15  3.46754E+02  5.22691E-06  6.4E-07
  6.750E-02  3.46978E-07  9.70914E-15  3.46720E+02  5.42824E-06  6.4E-07
  7.000E-02  3.73156E-07  9.70815E-15  3.46684E+02  5.62961E-06  6.4E-07
  7.250E-02  4.00286E-07  9.70712E-15  3.46647E+02  5.83101E-06  6.3E-07
  7.500E-02  4.28368E-07  9.70605E-15  3.46609E+02  6.03244E-06  6.3E-07
  7.750E-02  4.57402E-07  9.70495E-15  3.46570E+02  6.23392E-06  6.3E-07
  8.000E-02  4.87388E-07  9.70381E-15  3.46530E+02  6.43543E-06  6.3E-07
  8.250E-02  5.18325E-07  9.70264E-15  3.46488E+02  6.63698E-06  6.3E-07
  8.500E-02  5.50215E-07  9.70144E-15  3.46445E+02  6.83857E-06  6.2E-07
  8.750E-02  5.83057E-07  9.70019E-15  3.46400E+02  7.04021E-06  6.2E-07
  9.000E-02  6.16850E-07  9.69891E-15  3.46355E+02  7.24188E-06  6.2E-07
  9.250E-02  6.51596E-07  9.69760E-15  3.46308E+02  7.44361E-06  6.1E-07
  9.500E-02  6.87293E-07  9.69625E-15  3.46260E+02  7.64537E-06  6.1E-07
  9.750E-02  7.23942E-07  9.69487E-15  3.46210E+02  7.84719E-06  6.1E-07
  1.000E-01  7.61543E-07  9.69345E-15  3.46160E+02  8.04905E-06  6.1E-07
  1.250E-01  1.18991E-06  9.67737E-15  3.45585E+02  1.00706E-05  5.7E-07
  1.500E-01  1.71347E-06  9.65790E-15  3.44890E+02  1.20982E-05  5.4E-07
  1.750E-01  2.33223E-06  9.63513E-15  3.44077E+02  1.41330E-05  4.9E-07
  2.000E-01  3.04617E-06  9.60919E-15  3.43150E+02  1.61762E-05  4.4E-07
  2.250E-01  3.85531E-06  9.58021E-15  3.42116E+02  1.82287E-05  3.9E-07
  2.500E-01  4.75964E-06  9.54835E-15  3.40978E+02  2.02915E-05  3.4E-07
  2.750E-01  5.75916E-06  9.51375E-15  3.39742E+02  2.23656E-05  2.8E-07
  3.000E-01  6.85388E-06  9.47659E-15  3.38415E+02  2.44518E-05  2.2E-07
  3.250E-01  8.04378E-06  9.43705E-15  3.37003E+02  2.65509E-05  1.6E-07
  3.500E-01  9.32888E-06  9.39531E-15  3.35513E+02  2.86636E-05  1.0E-07
  3.750E-01  1.07092E-05  9.35156E-15  3.33950E+02  3.07906E-05  1.0E-07
  4.000E-01  1.21846E-05  9.30600E-15  3.32323E+02  3.29323E-05  1.0E-07
  4.250E-01  1.37553E-05  9.25881E-15  3.30638E+02  3.50893E-05  1.0E-07
  4.500E-01  1.54212E-05  9.21018E-15  3.28902E+02  3.72619E-05  1.1E-07
  4.750E-01  1.71822E-05  9.16032E-15  3.27121E+02  3.94505E-05  1.5E-07
  5.000E-01  1.90385E-05  9.10940E-15  3.25303E+02  4.16553E-05  1.9E-07
  5.250E-01  2.09899E-05  9.05761E-15  3.23453E+02  4.38764E-05  2.2E-07
  5.500E-01  2.30365E-05  9.00511E-15  3.21578E+02  4.61141E-05  2.4E-07
  5.750E-01  2.51783E-05  8.95209E-15  3.19685E+02  4.83682E-05  2.6E-07
  6.000E-01  2.74153E-05  8.89870E-15  3.17778E+02  5.06388E-05  2.7E-07
  6.250E-01  2.97475E-05  8.84508E-15  3.15863E+02  5.29257E-05  2.8E-07
  6.500E-01  3.21749E-05  8.79138E-15  3.13946E+02  5.52288E-05  2.8E-07
  6.750E-01  3.46974E-05  8.73772E-15  3.12029E+02  5.75480E-05  2.7E-07
  7.000E-01  3.73152E-05  8.68421E-15  3.10119E+02  5.98829E-05  2.6E-07
  7.250E-01  4.00281E-05  8.63098E-15  3.08218E+02  6.22333E-05  2.4E-07
  7.500E-01  4.28362E-05  8.57810E-15  3.06330E+02  6.45990E-05  2.2E-07
  7.750E-01  4.57395E-05  8.52566E-15  3.04457E+02  6.69797E-05  1.9E-07
  8.000E-01  4.87380E-05  8.47373E-15  3.02602E+02  6.93749E-05  1.6E-07
  8.250E-01  5.18317E-05  8.42237E-15  3.00768E+02  7.17845E-05  1.3E-07
  8.500E-01  5.50205E-05  8.37162E-15  2.98956E+02  7.42081E-05  1.0E-07
  8.750E-01  5.83045E-05  8.32152E-15  2.97167E+02  7.66453E-05  1.0E-07
  9.000E-01  6.16838E-05  8.27210E-15  2.95402E+02  7.90960E-05  1.0E-07
  9.250E-01  6.51582E-05  8.22337E-15  2.93662E+02  8.15599E-05  1.0E-07
  9.500E-01  6.87277E-05  8.17535E-15  2.91947E+02  8.40366E-05  1.0E-07
  9.750E-01  7.23925E-05  8.12803E-15  2.90257E+02  8.65261E-05  1.0E-07
  1.000E+00  7.61524E-05  8.08141E-15  2.88592E+02  8.90281E-05  1.2E-07
  1.100E+00  9.21439E-05  7.90155E-15  2.82169E+02  9.91590E-05  2.1E-07
  1.200E+00  1.09658E-04  7.73098E-15  2.76078E+02  1.09486E-04  2.2E-07
  1.300E+00  1.28695E-04  7.56757E-15  2.70243E+02  1.20012E-04  1.5E-07
  1.400E+00  1.49255E-04  7.40924E-15  2.64589E+02  1.30750E-04  1.0E-07
  1.500E+00  1.71338E-04  7.25445E-15  2.59061E+02  1.41711E-04  1.0E-07
  1.600E+00  1.94942E-04  7.10243E-15  2.53632E+02  1.52904E-04  1.7E-07
  1.700E+00  2.20070E-04  6.95309E-15  2.48299E+02  1.64333E-04  1.9E-07
  1.800E+00  2.46720E-04  6.80682E-15  2.43076E+02  1.75997E-04  1.5E-07
  1.900E+00  2.74892E-04  6.66419E-15  2.37983E+02  1.87890E-04  1.0E-07
  2.000E+00  3.04586E-04  6.52570E-15  2.33037E+02  2.00004E-04  1.0E-07
  2.100E+00  3.35803E-04  6.39158E-15  2.28248E+02  2.12332E-04  1.5E-07
  2.200E+00  3.68542E-04  6.26171E-15  2.23610E+02  2.24872E-04  1.8E-07
  2.300E+00  4.02802E-04  6.13571E-15  2.19110E+02  2.37625E-04  1.5E-07
  2.400E+00  4.38585E-04  6.01303E-15  2.14729E+02  2.50600E-04  1.0E-07
  2.500E+00  4.75889E-04  5.89312E-15  2.10447E+02  2.63803E-04  1.0E-07
  2.600E+00  5.14715E-04  5.77555E-15  2.06248E+02  2.77246E-04  1.3E-07
  2.700E+00  5.55063E-04  5.66007E-15  2.02125E+02  2.90934E-04  1.7E-07
  2.800E+00  5.96931E-04  5.54664E-15  1.98074E+02  3.04870E-04  1.5E-07
  2.900E+00  6.40321E-04  5.43538E-15  1.94101E+02  3.19054E-04  1.0E-07
  3.000E+00  6.85233E-04  5.32642E-15  1.90210E+02  3.33482E-04  1.0E-07
  3.100E+00  7.31665E-04  5.21990E-15  1.86406E+02  3.48152E-04  1.1E-07
  3.200E+00  7.79618E-04  5.11585E-15  1.82690E+02  3.63060E-04  1.6E-07
  3.300E+00  8.29092E-04  5.01419E-15  1.79060E+02  3.78210E-04  1.5E-07
  3.400E+00  8.80086E-04  4.91472E-15  1.75508E+02  3.93605E-04  1.0E-07
  3.500E+00  9.32601E-04  4.81723E-15  1.72027E+02  4.09254E-04  1.0E-07
  3.600E+00  9.86636E-04  4.72149E-15  1.68608E+02  4.25164E-04  1.0E-07
  3.700E+00  1.04219E-03  4.62734E-15  1.65245E+02  4.41345E-04  1.5E-07
  3.800E+00  1.09927E-03  4.53470E-15  1.61937E+02  4.57801E-04  1.6E-07
  3.900E+00  1.15786E-03  4.44355E-15  1.58682E+02  4.74535E-04  1.0E-07
  4.000E+00  1.21797E-03  4.35396E-15  1.55483E+02  4.91547E-04  1.0E-07
  4.100E+00  1.27961E-03  4.26599E-15  1.52341E+02  5.08836E-04  1.0E-07
  4.200E+00  1.34276E-03  4.17968E-15  1.49259E+02  5.26400E-04  1.4E-07
  4.300E+00  1.40743E-03  4.09504E-15  1.46236E+02  5.44240E-04  1.6E-07
  4.400E+00  1.47362E-03  4.01200E-15  1.43271E+02  5.62360E-04  1.1E-07
  4.500E+00  1.54133E-03  3.93049E-15  1.40360E+02  5.80765E-04  1.0E-07
  4.600E+00  1.61056E-03  3.85038E-15  1.37500E+02  5.99461E-04  1.0E-07
  4.700E+00  1.68131E-03  3.77159E-15  1.34686E+02  6.18458E-04  1.4E-07
  4.800E+00  1.75357E-03  3.69404E-15  1.31917E+02  6.37759E-04  1.6E-07
  4.900E+00  1.82735E-03  3.61771E-15  1.29191E+02  6.57369E-04  1.3E-07
  5.000E+00  1.90265E-03  3.54262E-15  1.26509E+02  6.77288E-04  1.0E-07
  5.100E+00  1.97947E-03  3.46878E-15  1.23872E+02  6.97517E-04  1.0E-07
  5.200E+00  2.05780E-03  3.39624E-15  1.21282E+02  7.18053E-04  1.3E-07
  5.300E+00  2.13765E-03  3.32501E-15  1.18738E+02  7.38896E-04  1.6E-07
  5.400E+00  2.21902E-03  3.25509E-15  1.16241E+02  7.60048E-04  1.4E-07
  5.500E+00  2.30190E-03  3.18643E-15  1.13790E+02  7.81510E-04  1.0E-07
  5.600E+00  2.38630E-03  3.11899E-15  1.11381E+02  8.03288E-04  1.0E-07
  5.700E+00  2.47222E-03  3.05270E-15  1.09014E+02  8.25385E-04  1.1E-07
  5.800E+00  2.55965E-03  2.98753E-15  1.06687E+02  8.47804E-04  1.6E-07
  5.900E+00  2.64859E-03  2.92344E-15  1.04398E+02  8.70549E-04  1.5E-07
  6.000E+00  2.73905E-03  2.86042E-15  1.02148E+02  8.93619E-04  1.0E-07
  6.100E+00  2.83103E-03  2.79850E-15  9.99361E+01  9.17011E-04  1.0E-07
  6.200E+00  2.92452E-03  2.73767E-15  9.77641E+01  9.40722E-04  1.0E-07
  6.300E+00  3.01952E-03  2.67797E-15  9.56321E+01  9.64750E-04  1.6E-07
  6.400E+00  3.11604E-03  2.61939E-15  9.35400E+01  9.89092E-04  1.5E-07
  6.500E+00  3.21407E-03  2.56191E-15  9.14876E+01  1.01375E-03  1.0E-07
  6.600E+00  3.31362E-03  2.50552E-15  8.94739E+01  1.03871E-03  1.0E-07
  6.700E+00  3.41468E-03  2.45018E-15  8.74977E+01  1.06399E-03  1.0E-07
  6.800E+00  3.51725E-03  2.39586E-15  8.55578E+01  1.08957E-03  1.5E-07
  6.900E+00  3.62133E-03  2.34253E-15  8.36532E+01  1.11547E-03  1.6E-07
  7.000E+00  3.72692E-03  2.29018E-15  8.17837E+01  1.14166E-03  1.1E-07
  7.100E+00  3.83403E-03  2.23880E-15  7.99489E+01  1.16815E-03  1.0E-07
  7.200E+00  3.94265E-03  2.18840E-15  7.81491E+01  1.19492E-03  1.0E-07
  7.300E+00  4.05278E-03  2.13898E-15  7.63845E+01  1.22198E-03  1.5E-07
  7.400E+00  4.16442E-03  2.09056E-15  7.46552E+01  1.24930E-03  1.7E-07
  7.500E+00  4.27757E-03  2.04311E-15  7.29609E+01  1.27689E-03  1.3E-07
  7.600E+00  4.39223E-03  1.99664E-15  7.13012E+01  1.30474E-03  1.0E-07
  7.700E+00  4.50840E-03  1.95110E-15  6.96752E+01  1.33283E-03  1.0E-07
  7.800E+00  4.62608E-03  1.90650E-15  6.80822E+01  1.36116E-03  1.4E-07
  7.900E+00  4.74527E-03  1.86279E-15  6.65214E+01  1.38972E-03  1.7E-07
  8.000E+00  4.86597E-03  1.81996E-15  6.49921E+01  1.41849E-03  1.4E-07
  8.100E+00  4.98817E-03  1.77801E-15  6.34939E+01  1.44745E-03  1.0E-07
  8.200E+00  5.11188E-03  1.73693E-15  6.20268E+01  1.47660E-03  1.0E-07
  8.300E+00  5.23711E-03  1.69671E-15  6.05905E+01  1.50591E-03  1.3E-07
  8.400E+00  5.36383E-03  1.65735E-15  5.91851E+01  1.53537E-03  1.8E-07
  8.500E+00  5.49207E-03  1.61885E-15  5.78103E+01  1.56496E-03  1.6E-07
  8.600E+00  5.62181E-03  1.58120E-15  5.64657E+01  1.59467E-03  1.0E-07
  8.700E+00  5.75306E-03  1.54438E-15  5.51508E+01  1.62448E-03  1.0E-07
  8.800E+00  5.88581E-03  1.50837E-15  5.38649E+01  1.65436E-03  1.2E-07
  8.900E+00  6.02007E-03  1.47316E-15  5.26073E+01  1.68429E-03  1.8E-07
  9.000E+00  6.15583E-03  1.43872E-15  5.13776E+01  1.71425E-03  1.7E-07
  9.100E+00  6.29310E-03  1.40505E-15  5.01751E+01  1.74420E-03  1.0E-07
  9.200E+00  6.43187E-03  1.37213E-15  4.89996E+01  1.77412E-03  1.0E-07
  9.300E+00  6.57214E-03  1.33996E-15  4.78507E+01  1.80398E-03  1.1E-07
  9.400E+00  6.71392E-03  1.30852E-15  4.67282E+01  1.83376E-03  1.8E-07
  9.500E+00  6.85720E-03  1.27782E-15  4.56319E+01  1.86342E-03  1.8E-07
  9.600E+00  7.00198E-03  1.24784E-15  4.45613E+01  1.89293E-03  1.2E-07
  9.700E+00  7.14827E-03  1.21857E-15  4.35160E+01  1.92228E-03  1.0E-07
  9.800E+00  7.29605E-03  1.19000E-15  4.24955E+01  1.95141E-03  1.0E-07
  9.900E+00  7.44534E-03  1.16210E-15  4.14992E+01  1.98030E-03  1.8E-07
  1.000E+01  7.59612E-03  1.13486E-15  4.05266E+01  2.00890E-03  1.9E-07
  1.025E+01  7.97965E-03  1.06959E-15  3.81957E+01  2.07882E-03  1.0E-07
  1.050E+01  8.37255E-03  1.00820E-15  3.60036E+01  2.14595E-03  2.0E-07
  1.075E+01  8.77480E-03  9.50548E-16  3.39447E+01  2.20968E-03  1.0E-07
  1.100E+01  9.18641E-03  8.96433E-16  3.20122E+01  2.26925E-03  2.1E-07
  1.125E+01  9.60736E-03  8.45662E-16  3.01991E+01  2.32375E-03  1.0E-07
  1.150E+01  1.00376E-02  7.98064E-16  2.84994E+01  2.37222E-03  2.1E-07
  1.175E+01  1.04773E-02  7.53473E-16  2.69070E+01  2.41386E-03  1.0E-07
  1.200E+01  1.09262E-02  7.11721E-16  2.54160E+01  2.44780E-03  2.2E-07
  1.225E+01  1.13844E-02  6.72641E-16  2.40204E+01  2.47292E-03  1.0E-07
  1.250E+01  1.18520E-02  6.36081E-16  2.27149E+01  2.48806E-03  2.2E-07
  1.275E+01  1.23288E-02  6.01891E-16  2.14939E+01  2.49228E-03  1.0E-07
  1.300E+01  1.28150E-02  5.69916E-16  2.03521E+01  2.48472E-03  2.1E-07
  1.325E+01  1.33104E-02  5.40020E-16  1.92845E+01  2.46425E-03  1.2E-07
  1.350E+01  1.38150E-02  5.12080E-16  1.82867E+01  2.42958E-03  2.1E-07
  1.375E+01  1.43290E-02  4.85967E-16  1.73542E+01  2.37977E-03  1.5E-07
  1.400E+01  1.48521E-02  4.61548E-16  1.64822E+01  2.31410E-03  2.0E-07
  1.425E+01  1.53845E-02  4.38709E-16  1.56666E+01  2.23164E-03  1.8E-07
  1.450E+01  1.59262E-02  4.17354E-16  1.49040E+01  2.13120E-03  1.8E-07
