 #
 # Subroutine ELSEPA. Elastic scattering of electrons and positrons
 #                    by neutral atoms and positive ions
 #
 # Projectile: electron
 # Kinetic energy = 7.00000E+01 eV = 2.57245E+00 a.u.
 #
 #  ***  WARNING: Energy is too low.
 #                The reliability of the results is questionable.
 #
 # Element:  O,  Z =   8,  atomic weight = 1.59994E+01 g/mol
 #
 # Nuclear model: Fermi distribution
 #                Average radius = 2.69620E-13 cm
 #                Skin thickness = 5.46000E-14 cm
 #
 # Number of electrons =  8
 #
 # Electron density: analytical DHFS model
 #                   A1 =  6.25130D-02 ,   ALPHA1 = 1.48233D+01
 #                   A2 =  9.37487D-01 ,   ALPHA2 = 2.04035D+00
 #                   A3 =  0.00000D+00 ,   ALPHA3 = 1.00000D+00
 #                   Volume integral = 8.00000E+00
 #
 # Furness-McCarthy exchange potential
 #
 # Total elastic cross section = 3.04952E-16 cm**2 = 1.08900E+01 a0**2
 # 1st transport cross section = 2.21998E-16 cm**2 = 7.92769E+00 a0**2
 # 2nd transport cross section = 1.60216E-16 cm**2 = 5.72143E+00 a0**2
 #
 #
 # Differential cross section:                       MU=(1-COS(THETA))/2
 #
 #  THETA        MU          DCS          DCS        Sherman      error
 #  (deg)                 (cm**2/sr)   (a0**2/sr)    function
 #----------------------------------------------------------------------
  0.000E+00  0.00000E+00  1.83311E-16  6.54614E+00  0.00000E+00  1.0E-07
  1.000E-04  7.61557E-13  1.83311E-16  6.54614E+00  2.00242E-10  1.0E-07
  1.250E-04  1.18994E-12  1.83311E-16  6.54614E+00  2.50302E-10  1.0E-07
  1.500E-04  1.71346E-12  1.83311E-16  6.54614E+00  3.00363E-10  1.0E-07
  1.750E-04  2.33225E-12  1.83311E-16  6.54614E+00  3.50423E-10  1.0E-07
  2.000E-04  3.04617E-12  1.83311E-16  6.54614E+00  4.00484E-10  1.0E-07
  2.250E-04  3.85530E-12  1.83311E-16  6.54614E+00  4.50544E-10  1.0E-07
  2.500E-04  4.75964E-12  1.83311E-16  6.54614E+00  5.00605E-10  1.0E-07
  2.750E-04  5.75917E-12  1.83311E-16  6.54614E+00  5.50665E-10  1.0E-07
  3.000E-04  6.85391E-12  1.83311E-16  6.54614E+00  6.00726E-10  1.0E-07
  3.250E-04  8.04379E-12  1.83311E-16  6.54614E+00  6.50786E-10  1.0E-07
  3.500E-04  9.32893E-12  1.83311E-16  6.54614E+00  7.00847E-10  1.0E-07
  3.750E-04  1.07092E-11  1.83311E-16  6.54614E+00  7.50907E-10  1.0E-07
  4.000E-04  1.21847E-11  1.83311E-16  6.54614E+00  8.00968E-10  1.0E-07
  4.250E-04  1.37554E-11  1.83311E-16  6.54614E+00  8.51028E-10  1.0E-07
  4.500E-04  1.54213E-11  1.83311E-16  6.54614E+00  9.01089E-10  1.0E-07
  4.750E-04  1.71823E-11  1.83311E-16  6.54614E+00  9.51149E-10  1.0E-07
  5.000E-04  1.90386E-11  1.83311E-16  6.54614E+00  1.00121E-09  1.0E-07
  5.250E-04  2.09900E-11  1.83311E-16  6.54614E+00  1.05127E-09  1.0E-07
  5.500E-04  2.30367E-11  1.83311E-16  6.54614E+00  1.10133E-09  1.0E-07
  5.750E-04  2.51785E-11  1.83311E-16  6.54614E+00  1.15139E-09  1.0E-07
  6.000E-04  2.74156E-11  1.83311E-16  6.54614E+00  1.20145E-09  1.0E-07
  6.250E-04  2.97478E-11  1.83311E-16  6.54614E+00  1.25151E-09  1.0E-07
  6.500E-04  3.21752E-11  1.83311E-16  6.54614E+00  1.30157E-09  1.0E-07
  6.750E-04  3.46979E-11  1.83311E-16  6.54614E+00  1.35163E-09  1.0E-07
  7.000E-04  3.73157E-11  1.83311E-16  6.54614E+00  1.40169E-09  1.0E-07
  7.250E-04  4.00286E-11  1.83311E-16  6.54614E+00  1.45175E-09  1.0E-07
  7.500E-04  4.28368E-11  1.83311E-16  6.54614E+00  1.50181E-09  1.0E-07
  7.750E-04  4.57402E-11  1.83311E-16  6.54614E+00  1.55188E-09  1.0E-07
  8.000E-04  4.87388E-11  1.83311E-16  6.54614E+00  1.60194E-09  1.0E-07
  8.250E-04  5.18325E-11  1.83311E-16  6.54614E+00  1.65200E-09  1.0E-07
  8.500E-04  5.50215E-11  1.83311E-16  6.54614E+00  1.70206E-09  1.0E-07
  8.750E-04  5.83057E-11  1.83311E-16  6.54614E+00  1.75212E-09  1.0E-07
  9.000E-04  6.16850E-11  1.83311E-16  6.54614E+00  1.80218E-09  1.0E-07
  9.250E-04  6.51595E-11  1.83311E-16  6.54614E+00  1.85224E-09  1.0E-07
  9.500E-04  6.87293E-11  1.83311E-16  6.54614E+00  1.90230E-09  1.0E-07
  9.750E-04  7.23943E-11  1.83311E-16  6.54614E+00  1.95236E-09  1.0E-07
  1.000E-03  7.61544E-11  1.83311E-16  6.54614E+00  2.00242E-09  1.0E-07
  1.250E-03  1.18991E-10  1.83311E-16  6.54614E+00  2.50302E-09  1.0E-07
  1.500E-03  1.71347E-10  1.83311E-16  6.54614E+00  3.00363E-09  1.0E-07
  1.750E-03  2.33223E-10  1.83311E-16  6.54614E+00  3.50423E-09  1.0E-07
  2.000E-03  3.04617E-10  1.83311E-16  6.54614E+00  4.00484E-09  1.0E-07
  2.250E-03  3.85531E-10  1.83311E-16  6.54614E+00  4.50544E-09  1.0E-07
  2.500E-03  4.75965E-10  1.83311E-16  6.54614E+00  5.00605E-09  1.0E-07
  2.750E-03  5.75917E-10  1.83311E-16  6.54614E+00  5.50665E-09  1.0E-07
  3.000E-03  6.85389E-10  1.83311E-16  6.54614E+00  6.00726E-09  1.0E-07
  3.250E-03  8.04380E-10  1.83311E-16  6.54614E+00  6.50786E-09  1.0E-07
  3.500E-03  9.32891E-10  1.83311E-16  6.54614E+00  7.00847E-09  1.0E-07
  3.750E-03  1.07092E-09  1.83311E-16  6.54614E+00  7.50907E-09  1.0E-07
  4.000E-03  1.21847E-09  1.83311E-16  6.54614E+00  8.00968E-09  1.0E-07
  4.250E-03  1.37554E-09  1.83311E-16  6.54614E+00  8.51028E-09  1.0E-07
  4.500E-03  1.54213E-09  1.83311E-16  6.54614E+00  9.01089E-09  1.0E-07
  4.750E-03  1.71823E-09  1.83311E-16  6.54614E+00  9.51149E-09  1.0E-07
  5.000E-03  1.90386E-09  1.83311E-16  6.54614E+00  1.00121E-08  1.0E-07
  5.250E-03  2.09900E-09  1.83311E-16  6.54614E+00  1.05127E-08  1.0E-07
  5.500E-03  2.30367E-09  1.83311E-16  6.54614E+00  1.10133E-08  1.0E-07
  5.750E-03  2.51785E-09  1.83311E-16  6.54614E+00  1.15139E-08  1.0E-07
  6.000E-03  2.74156E-09  1.83311E-16  6.54614E+00  1.20145E-08  1.0E-07
  6.250E-03  2.97478E-09  1.83311E-16  6.54614E+00  1.25151E-08  1.0E-07
  6.500E-03  3.21752E-09  1.83311E-16  6.54614E+00  1.30157E-08  1.0E-07
  6.750E-03  3.46978E-09  1.83311E-16  6.54614E+00  1.35163E-08  1.0E-07
  7.000E-03  3.73156E-09  1.83311E-16  6.54614E+00  1.40169E-08  1.0E-07
  7.250E-03  4.00286E-09  1.83311E-16  6.54614E+00  1.45175E-08  1.0E-07
  7.500E-03  4.28368E-09  1.83311E-16  6.54614E+00  1.50181E-08  1.0E-07
  7.750E-03  4.57402E-09  1.83311E-16  6.54614E+00  1.55188E-08  1.0E-07
  8.000E-03  4.87388E-09  1.83311E-16  6.54614E+00  1.60194E-08  1.0E-07
  8.250E-03  5.18326E-09  1.83311E-16  6.54614E+00  1.65200E-08  1.0E-07
  8.500E-03  5.50215E-09  1.83311E-16  6.54614E+00  1.70206E-08  1.0E-07
  8.750E-03  5.83057E-09  1.83311E-16  6.54614E+00  1.75212E-08  1.0E-07
  9.000E-03  6.16850E-09  1.83311E-16  6.54614E+00  1.80218E-08  1.0E-07
  9.250E-03  6.51596E-09  1.83311E-16  6.54614E+00  1.85224E-08  1.0E-07
  9.500E-03  6.87293E-09  1.83311E-16  6.54614E+00  1.90230E-08  1.0E-07
  9.750E-03  7.23942E-09  1.83311E-16  6.54614E+00  1.95236E-08  1.0E-07
  1.000E-02  7.61544E-09  1.83311E-16  6.54614E+00  2.00242E-08  1.0E-07
  1.250E-02  1.18991E-08  1.83311E-16  6.54614E+00  2.50303E-08  1.0E-07
  1.500E-02  1.71347E-08  1.83311E-16  6.54614E+00  3.00363E-08  1.0E-07
  1.750E-02  2.33223E-08  1.83311E-16  6.54614E+00  3.50424E-08  1.0E-07
  2.000E-02  3.04617E-08  1.83311E-16  6.54614E+00  4.00484E-08  1.0E-07
  2.250E-02  3.85531E-08  1.83311E-16  6.54614E+00  4.50545E-08  1.0E-07
  2.500E-02  4.75965E-08  1.83311E-16  6.54614E+00  5.00606E-08  1.0E-07
  2.750E-02  5.75917E-08  1.83311E-16  6.54614E+00  5.50666E-08  1.0E-07
  3.000E-02  6.85389E-08  1.83311E-16  6.54614E+00  6.00727E-08  1.0E-07
  3.250E-02  8.04380E-08  1.83310E-16  6.54614E+00  6.50788E-08  1.0E-07
  3.500E-02  9.32891E-08  1.83310E-16  6.54613E+00  7.00849E-08  1.0E-07
  3.750E-02  1.07092E-07  1.83310E-16  6.54613E+00  7.50910E-08  1.0E-07
  4.000E-02  1.21847E-07  1.83310E-16  6.54613E+00  8.00971E-08  1.0E-07
  4.250E-02  1.37554E-07  1.83310E-16  6.54613E+00  8.51032E-08  1.0E-07
  4.500E-02  1.54213E-07  1.83310E-16  6.54613E+00  9.01093E-08  1.0E-07
  4.750E-02  1.71823E-07  1.83310E-16  6.54613E+00  9.51154E-08  1.0E-07
  5.000E-02  1.90386E-07  1.83310E-16  6.54613E+00  1.00122E-07  1.0E-07
  5.250E-02  2.09900E-07  1.83310E-16  6.54612E+00  1.05128E-07  1.0E-07
  5.500E-02  2.30367E-07  1.83310E-16  6.54612E+00  1.10134E-07  1.0E-07
  5.750E-02  2.51785E-07  1.83310E-16  6.54612E+00  1.15140E-07  1.0E-07
  6.000E-02  2.74156E-07  1.83310E-16  6.54612E+00  1.20146E-07  1.0E-07
  6.250E-02  2.97478E-07  1.83310E-16  6.54611E+00  1.25152E-07  1.0E-07
  6.500E-02  3.21752E-07  1.83310E-16  6.54611E+00  1.30159E-07  1.0E-07
  6.750E-02  3.46978E-07  1.83310E-16  6.54611E+00  1.35165E-07  1.0E-07
  7.000E-02  3.73156E-07  1.83310E-16  6.54611E+00  1.40171E-07  1.0E-07
  7.250E-02  4.00286E-07  1.83310E-16  6.54610E+00  1.45177E-07  1.0E-07
  7.500E-02  4.28368E-07  1.83310E-16  6.54610E+00  1.50184E-07  1.0E-07
  7.750E-02  4.57402E-07  1.83309E-16  6.54610E+00  1.55190E-07  1.0E-07
  8.000E-02  4.87388E-07  1.83309E-16  6.54610E+00  1.60196E-07  1.0E-07
  8.250E-02  5.18325E-07  1.83309E-16  6.54609E+00  1.65202E-07  1.0E-07
  8.500E-02  5.50215E-07  1.83309E-16  6.54609E+00  1.70209E-07  1.0E-07
  8.750E-02  5.83057E-07  1.83309E-16  6.54609E+00  1.75215E-07  1.0E-07
  9.000E-02  6.16850E-07  1.83309E-16  6.54608E+00  1.80221E-07  1.0E-07
  9.250E-02  6.51596E-07  1.83309E-16  6.54608E+00  1.85228E-07  1.0E-07
  9.500E-02  6.87293E-07  1.83309E-16  6.54608E+00  1.90234E-07  1.0E-07
  9.750E-02  7.23942E-07  1.83309E-16  6.54607E+00  1.95240E-07  1.0E-07
  1.000E-01  7.61543E-07  1.83309E-16  6.54607E+00  2.00247E-07  1.0E-07
  1.250E-01  1.18991E-06  1.83307E-16  6.54603E+00  2.50312E-07  1.0E-07
  1.500E-01  1.71347E-06  1.83306E-16  6.54597E+00  3.00380E-07  1.0E-07
  1.750E-01  2.33223E-06  1.83304E-16  6.54591E+00  3.50450E-07  1.0E-07
  2.000E-01  3.04617E-06  1.83302E-16  6.54584E+00  4.00523E-07  1.0E-07
  2.250E-01  3.85531E-06  1.83300E-16  6.54576E+00  4.50600E-07  1.0E-07
  2.500E-01  4.75964E-06  1.83297E-16  6.54567E+00  5.00682E-07  1.0E-07
  2.750E-01  5.75916E-06  1.83295E-16  6.54557E+00  5.50768E-07  1.0E-07
  3.000E-01  6.85388E-06  1.83292E-16  6.54546E+00  6.00859E-07  1.0E-07
  3.250E-01  8.04378E-06  1.83288E-16  6.54534E+00  6.50955E-07  1.0E-07
  3.500E-01  9.32888E-06  1.83285E-16  6.54521E+00  7.01058E-07  1.0E-07
  3.750E-01  1.07092E-05  1.83281E-16  6.54507E+00  7.51167E-07  1.0E-07
  4.000E-01  1.21846E-05  1.83277E-16  6.54493E+00  8.01283E-07  1.0E-07
  4.250E-01  1.37553E-05  1.83272E-16  6.54477E+00  8.51406E-07  1.0E-07
  4.500E-01  1.54212E-05  1.83268E-16  6.54460E+00  9.01537E-07  1.0E-07
  4.750E-01  1.71822E-05  1.83263E-16  6.54443E+00  9.51676E-07  1.0E-07
  5.000E-01  1.90385E-05  1.83257E-16  6.54424E+00  1.00182E-06  1.0E-07
  5.250E-01  2.09899E-05  1.83252E-16  6.54404E+00  1.05198E-06  1.0E-07
  5.500E-01  2.30365E-05  1.83246E-16  6.54384E+00  1.10215E-06  1.0E-07
  5.750E-01  2.51783E-05  1.83240E-16  6.54363E+00  1.15233E-06  1.0E-07
  6.000E-01  2.74153E-05  1.83234E-16  6.54340E+00  1.20251E-06  1.0E-07
  6.250E-01  2.97475E-05  1.83227E-16  6.54317E+00  1.25271E-06  1.0E-07
  6.500E-01  3.21749E-05  1.83221E-16  6.54293E+00  1.30292E-06  1.0E-07
  6.750E-01  3.46974E-05  1.83214E-16  6.54267E+00  1.35315E-06  1.0E-07
  7.000E-01  3.73152E-05  1.83206E-16  6.54241E+00  1.40338E-06  1.0E-07
  7.250E-01  4.00281E-05  1.83199E-16  6.54214E+00  1.45363E-06  1.0E-07
  7.500E-01  4.28362E-05  1.83191E-16  6.54186E+00  1.50389E-06  1.0E-07
  7.750E-01  4.57395E-05  1.83183E-16  6.54157E+00  1.55417E-06  1.0E-07
  8.000E-01  4.87380E-05  1.83174E-16  6.54127E+00  1.60445E-06  1.0E-07
  8.250E-01  5.18317E-05  1.83166E-16  6.54096E+00  1.65476E-06  1.0E-07
  8.500E-01  5.50205E-05  1.83157E-16  6.54064E+00  1.70508E-06  1.0E-07
  8.750E-01  5.83045E-05  1.83147E-16  6.54031E+00  1.75541E-06  1.0E-07
  9.000E-01  6.16838E-05  1.83138E-16  6.53998E+00  1.80576E-06  1.0E-07
  9.250E-01  6.51582E-05  1.83128E-16  6.53963E+00  1.85613E-06  1.0E-07
  9.500E-01  6.87277E-05  1.83118E-16  6.53927E+00  1.90652E-06  1.0E-07
  9.750E-01  7.23925E-05  1.83108E-16  6.53891E+00  1.95692E-06  1.0E-07
  1.000E+00  7.61524E-05  1.83098E-16  6.53853E+00  2.00734E-06  1.0E-07
  1.100E+00  9.21439E-05  1.83053E-16  6.53693E+00  2.20921E-06  1.0E-07
  1.200E+00  1.09658E-04  1.83004E-16  6.53519E+00  2.41141E-06  1.0E-07
  1.300E+00  1.28695E-04  1.82951E-16  6.53329E+00  2.61396E-06  1.0E-07
  1.400E+00  1.49255E-04  1.82893E-16  6.53123E+00  2.81689E-06  1.0E-07
  1.500E+00  1.71338E-04  1.82832E-16  6.52903E+00  3.02024E-06  1.0E-07
  1.600E+00  1.94942E-04  1.82766E-16  6.52668E+00  3.22404E-06  1.0E-07
  1.700E+00  2.20070E-04  1.82696E-16  6.52418E+00  3.42831E-06  1.0E-07
  1.800E+00  2.46720E-04  1.82621E-16  6.52152E+00  3.63308E-06  1.0E-07
  1.900E+00  2.74892E-04  1.82543E-16  6.51872E+00  3.83838E-06  1.0E-07
  2.000E+00  3.04586E-04  1.82460E-16  6.51576E+00  4.04425E-06  1.0E-07
  2.100E+00  3.35803E-04  1.82373E-16  6.51266E+00  4.25071E-06  1.0E-07
  2.200E+00  3.68542E-04  1.82282E-16  6.50941E+00  4.45780E-06  1.0E-07
  2.300E+00  4.02802E-04  1.82187E-16  6.50601E+00  4.66554E-06  1.0E-07
  2.400E+00  4.38585E-04  1.82087E-16  6.50246E+00  4.87396E-06  1.0E-07
  2.500E+00  4.75889E-04  1.81984E-16  6.49876E+00  5.08310E-06  1.0E-07
  2.600E+00  5.14715E-04  1.81876E-16  6.49491E+00  5.29298E-06  1.0E-07
  2.700E+00  5.55063E-04  1.81764E-16  6.49092E+00  5.50364E-06  1.0E-07
  2.800E+00  5.96931E-04  1.81648E-16  6.48678E+00  5.71510E-06  1.0E-07
  2.900E+00  6.40321E-04  1.81528E-16  6.48249E+00  5.92740E-06  1.0E-07
  3.000E+00  6.85233E-04  1.81404E-16  6.47805E+00  6.14056E-06  1.0E-07
  3.100E+00  7.31665E-04  1.81276E-16  6.47347E+00  6.35462E-06  1.0E-07
  3.200E+00  7.79618E-04  1.81143E-16  6.46875E+00  6.56961E-06  1.0E-07
  3.300E+00  8.29092E-04  1.81007E-16  6.46387E+00  6.78555E-06  1.0E-07
  3.400E+00  8.80086E-04  1.80866E-16  6.45886E+00  7.00248E-06  1.0E-07
  3.500E+00  9.32601E-04  1.80722E-16  6.45370E+00  7.22044E-06  1.0E-07
  3.600E+00  9.86636E-04  1.80573E-16  6.44839E+00  7.43944E-06  1.0E-07
  3.700E+00  1.04219E-03  1.80421E-16  6.44295E+00  7.65953E-06  1.0E-07
  3.800E+00  1.09927E-03  1.80264E-16  6.43736E+00  7.88072E-06  1.0E-07
  3.900E+00  1.15786E-03  1.80104E-16  6.43162E+00  8.10307E-06  1.0E-07
  4.000E+00  1.21797E-03  1.79939E-16  6.42575E+00  8.32659E-06  1.0E-07
  4.100E+00  1.27961E-03  1.79771E-16  6.41973E+00  8.55131E-06  1.0E-07
  4.200E+00  1.34276E-03  1.79598E-16  6.41358E+00  8.77727E-06  1.0E-07
  4.300E+00  1.40743E-03  1.79422E-16  6.40728E+00  9.00451E-06  1.0E-07
  4.400E+00  1.47362E-03  1.79242E-16  6.40084E+00  9.23305E-06  1.0E-07
  4.500E+00  1.54133E-03  1.79058E-16  6.39427E+00  9.46292E-06  1.0E-07
  4.600E+00  1.61056E-03  1.78870E-16  6.38755E+00  9.69415E-06  1.0E-07
  4.700E+00  1.68131E-03  1.78678E-16  6.38070E+00  9.92679E-06  1.0E-07
  4.800E+00  1.75357E-03  1.78482E-16  6.37371E+00  1.01609E-05  1.0E-07
  4.900E+00  1.82735E-03  1.78283E-16  6.36659E+00  1.03964E-05  1.0E-07
  5.000E+00  1.90265E-03  1.78079E-16  6.35933E+00  1.06334E-05  1.0E-07
  5.100E+00  1.97947E-03  1.77872E-16  6.35193E+00  1.08719E-05  1.0E-07
  5.200E+00  2.05780E-03  1.77661E-16  6.34440E+00  1.11121E-05  1.0E-07
  5.300E+00  2.13765E-03  1.77447E-16  6.33674E+00  1.13538E-05  1.0E-07
  5.400E+00  2.21902E-03  1.77228E-16  6.32894E+00  1.15971E-05  1.0E-07
  5.500E+00  2.30190E-03  1.77006E-16  6.32101E+00  1.18421E-05  1.0E-07
  5.600E+00  2.38630E-03  1.76780E-16  6.31295E+00  1.20888E-05  1.0E-07
  5.700E+00  2.47222E-03  1.76551E-16  6.30475E+00  1.23372E-05  1.0E-07
  5.800E+00  2.55965E-03  1.76318E-16  6.29643E+00  1.25873E-05  1.0E-07
  5.900E+00  2.64859E-03  1.76081E-16  6.28797E+00  1.28393E-05  1.0E-07
  6.000E+00  2.73905E-03  1.75841E-16  6.27939E+00  1.30931E-05  1.0E-07
  6.100E+00  2.83103E-03  1.75597E-16  6.27068E+00  1.33487E-05  1.0E-07
  6.200E+00  2.92452E-03  1.75349E-16  6.26184E+00  1.36062E-05  1.0E-07
  6.300E+00  3.01952E-03  1.75098E-16  6.25288E+00  1.38657E-05  1.0E-07
  6.400E+00  3.11604E-03  1.74844E-16  6.24379E+00  1.41271E-05  1.0E-07
  6.500E+00  3.21407E-03  1.74586E-16  6.23457E+00  1.43906E-05  1.0E-07
  6.600E+00  3.31362E-03  1.74324E-16  6.22524E+00  1.46560E-05  1.0E-07
  6.700E+00  3.41468E-03  1.74059E-16  6.21577E+00  1.49236E-05  1.0E-07
  6.800E+00  3.51725E-03  1.73791E-16  6.20619E+00  1.51932E-05  1.0E-07
  6.900E+00  3.62133E-03  1.73519E-16  6.19648E+00  1.54650E-05  1.0E-07
  7.000E+00  3.72692E-03  1.73244E-16  6.18665E+00  1.57389E-05  1.0E-07
  7.100E+00  3.83403E-03  1.72965E-16  6.17670E+00  1.60150E-05  1.0E-07
  7.200E+00  3.94265E-03  1.72683E-16  6.16664E+00  1.62934E-05  1.0E-07
  7.300E+00  4.05278E-03  1.72398E-16  6.15645E+00  1.65741E-05  1.0E-07
  7.400E+00  4.16442E-03  1.72110E-16  6.14615E+00  1.68571E-05  1.0E-07
  7.500E+00  4.27757E-03  1.71818E-16  6.13573E+00  1.71424E-05  1.0E-07
  7.600E+00  4.39223E-03  1.71523E-16  6.12520E+00  1.74301E-05  1.0E-07
  7.700E+00  4.50840E-03  1.71225E-16  6.11455E+00  1.77203E-05  1.0E-07
  7.800E+00  4.62608E-03  1.70923E-16  6.10378E+00  1.80129E-05  1.0E-07
  7.900E+00  4.74527E-03  1.70619E-16  6.09291E+00  1.83080E-05  1.0E-07
  8.000E+00  4.86597E-03  1.70311E-16  6.08192E+00  1.86056E-05  1.0E-07
  8.100E+00  4.98817E-03  1.70000E-16  6.07082E+00  1.89059E-05  1.0E-07
  8.200E+00  5.11188E-03  1.69686E-16  6.05961E+00  1.92087E-05  1.0E-07
  8.300E+00  5.23711E-03  1.69369E-16  6.04829E+00  1.95142E-05  1.0E-07
  8.400E+00  5.36383E-03  1.69049E-16  6.03686E+00  1.98223E-05  1.0E-07
  8.500E+00  5.49207E-03  1.68726E-16  6.02533E+00  2.01332E-05  1.0E-07
  8.600E+00  5.62181E-03  1.68400E-16  6.01369E+00  2.04469E-05  1.0E-07
  8.700E+00  5.75306E-03  1.68071E-16  6.00194E+00  2.07633E-05  1.0E-07
  8.800E+00  5.88581E-03  1.67740E-16  5.99009E+00  2.10826E-05  1.0E-07
  8.900E+00  6.02007E-03  1.67405E-16  5.97814E+00  2.14048E-05  1.0E-07
  9.000E+00  6.15583E-03  1.67067E-16  5.96608E+00  2.17298E-05  1.0E-07
  9.100E+00  6.29310E-03  1.66727E-16  5.95392E+00  2.20579E-05  1.0E-07
  9.200E+00  6.43187E-03  1.66384E-16  5.94167E+00  2.23889E-05  1.0E-07
  9.300E+00  6.57214E-03  1.66038E-16  5.92931E+00  2.27230E-05  1.0E-07
  9.400E+00  6.71392E-03  1.65689E-16  5.91685E+00  2.30601E-05  1.0E-07
  9.500E+00  6.85720E-03  1.65337E-16  5.90430E+00  2.34004E-05  1.0E-07
  9.600E+00  7.00198E-03  1.64983E-16  5.89165E+00  2.37438E-05  1.0E-07
  9.700E+00  7.14827E-03  1.64626E-16  5.87890E+00  2.40905E-05  1.0E-07
  9.800E+00  7.29605E-03  1.64267E-16  5.86606E+00  2.44403E-05  1.0E-07
  9.900E+00  7.44534E-03  1.63904E-16  5.85313E+00  2.47934E-05  1.0E-07
  1.000E+01  7.59612E-03  1.63540E-16  5.84011E+00  2.51499E-05  1.0E-07
  1.025E+01  7.97965E-03  1.62617E-16  5.80714E+00  2.60559E-05  1.0E-07
  1.050E+01  8.37255E-03  1.61678E-16  5.77363E+00  2.69835E-05  1.0E-07
  1.075E+01  8.77480E-03  1.60725E-16  5.73958E+00  2.79335E-05  1.0E-07
  1.100E+01  9.18641E-03  1.59756E-16  5.70501E+00  2.89064E-05  1.0E-07
  1.125E+01  9.60736E-03  1.58774E-16  5.66993E+00  2.99031E-05  1.0E-07
  1.150E+01  1.00376E-02  1.57778E-16  5.63436E+00  3.09242E-05  1.0E-07
  1.175E+01  1.04773E-02  1.56769E-16  5.59833E+00  3.19704E-05  1.0E-07
  1.200E+01  1.09262E-02  1.55747E-16  5.56184E+00  3.30424E-05  1.0E-07
  1.225E+01  1.13844E-02  1.54713E-16  5.52491E+00  3.41409E-05  1.0E-07
  1.250E+01  1.18520E-02  1.53667E-16  5.48756E+00  3.52668E-05  1.0E-07
  1.275E+01  1.23288E-02  1.52610E-16  5.44981E+00  3.64207E-05  1.0E-07
  1.300E+01  1.28150E-02  1.51542E-16  5.41167E+00  3.76033E-05  1.0E-07
  1.325E+01  1.33104E-02  1.50464E-16  5.37316E+00  3.88155E-05  1.0E-07
  1.350E+01  1.38150E-02  1.49376E-16  5.33430E+00  4.00581E-05  1.0E-07
  1.375E+01  1.43290E-02  1.48278E-16  5.29511E+00  4.13318E-05  1.0E-07
  1.400E+01  1.48521E-02  1.47172E-16  5.25560E+00  4.26374E-05  1.0E-07
  1.425E+01  1.53845E-02  1.46057E-16  5.21578E+00  4.39758E-05  1.0E-07
  1.450E+01  1.59262E-02  1.44934E-16  5.17568E+00  4.53478E-05  1.0E-07
