 #
 # Subroutine ELSEPA. Elastic scattering of electrons and positrons
 #                    by neutral atoms and positive ions
 #
 # Projectile: electron
 # Kinetic energy = 3.50000E+03 eV = 1.28623E+02 a.u.
 #
 # Element: Hg,  Z =  80,  atomic weight = 2.00590E+02 g/mol
 #
 # Nuclear model: Fermi distribution
 #                Average radius = 6.26355E-13 cm
 #                Skin thickness = 5.46000E-14 cm
 #
 # Number of electrons = 80
 #
 # Electron density: analytical TFD model
 #                   A1 =  1.19007D-01 ,   ALPHA1 = 2.60190D+01
 #                   A2 =  5.60270D-01 ,   ALPHA2 = 5.45128D+00
 #                   A3 =  3.20724D-01 ,   ALPHA3 = 1.55122D+00
 #                   Volume integral = 8.00000E+01
 #
 # Furness-McCarthy exchange potential
 #
 # Correlation-polarization potential (Buckingham):
 #                           Alpha = 5.10000E-24 cm**3
 #                            Bpol = 1.46842E+01
 #
 # Total elastic cross section = 1.77259E-16 cm**2 = 6.33002E+00 a0**2
 # 1st transport cross section = 1.94531E-17 cm**2 = 6.94681E-01 a0**2
 # 2nd transport cross section = 2.22219E-17 cm**2 = 7.93558E-01 a0**2
 #
 #
 # Differential cross section:                       MU=(1-COS(THETA))/2
 #
 #  THETA        MU          DCS          DCS        Sherman      error
 #  (deg)                 (cm**2/sr)   (a0**2/sr)    function
 #----------------------------------------------------------------------
  0.000E+00  0.00000E+00  1.06937E-14  3.81880E+02  0.00000E+00  2.8E-05
  1.000E-04  7.61557E-13  1.06937E-14  3.81880E+02  2.13160E-09  2.8E-05
  1.250E-04  1.18994E-12  1.06937E-14  3.81880E+02  2.66450E-09  2.8E-05
  1.500E-04  1.71346E-12  1.06937E-14  3.81880E+02  3.19740E-09  2.8E-05
  1.750E-04  2.33225E-12  1.06937E-14  3.81880E+02  3.73030E-09  2.8E-05
  2.000E-04  3.04617E-12  1.06937E-14  3.81880E+02  4.26320E-09  2.8E-05
  2.250E-04  3.85530E-12  1.06937E-14  3.81880E+02  4.79610E-09  2.8E-05
  2.500E-04  4.75964E-12  1.06937E-14  3.81880E+02  5.32900E-09  2.8E-05
  2.750E-04  5.75917E-12  1.06937E-14  3.81880E+02  5.86190E-09  2.8E-05
  3.000E-04  6.85391E-12  1.06937E-14  3.81880E+02  6.39480E-09  2.8E-05
  3.250E-04  8.04379E-12  1.06937E-14  3.81880E+02  6.92769E-09  2.8E-05
  3.500E-04  9.32893E-12  1.06937E-14  3.81880E+02  7.46059E-09  2.8E-05
  3.750E-04  1.07092E-11  1.06937E-14  3.81880E+02  7.99349E-09  2.8E-05
  4.000E-04  1.21847E-11  1.06937E-14  3.81880E+02  8.52639E-09  2.8E-05
  4.250E-04  1.37554E-11  1.06937E-14  3.81880E+02  9.05929E-09  2.8E-05
  4.500E-04  1.54213E-11  1.06937E-14  3.81879E+02  9.59219E-09  2.8E-05
  4.750E-04  1.71823E-11  1.06937E-14  3.81879E+02  1.01251E-08  2.8E-05
  5.000E-04  1.90386E-11  1.06937E-14  3.81879E+02  1.06580E-08  2.8E-05
  5.250E-04  2.09900E-11  1.06937E-14  3.81879E+02  1.11909E-08  2.8E-05
  5.500E-04  2.30367E-11  1.06937E-14  3.81879E+02  1.17238E-08  2.8E-05
  5.750E-04  2.51785E-11  1.06937E-14  3.81879E+02  1.22567E-08  2.8E-05
  6.000E-04  2.74156E-11  1.06937E-14  3.81879E+02  1.27896E-08  2.8E-05
  6.250E-04  2.97478E-11  1.06937E-14  3.81879E+02  1.33225E-08  2.8E-05
  6.500E-04  3.21752E-11  1.06937E-14  3.81879E+02  1.38554E-08  2.8E-05
  6.750E-04  3.46979E-11  1.06937E-14  3.81879E+02  1.43883E-08  2.8E-05
  7.000E-04  3.73157E-11  1.06937E-14  3.81879E+02  1.49212E-08  2.8E-05
  7.250E-04  4.00286E-11  1.06937E-14  3.81879E+02  1.54541E-08  2.8E-05
  7.500E-04  4.28368E-11  1.06937E-14  3.81879E+02  1.59870E-08  2.8E-05
  7.750E-04  4.57402E-11  1.06937E-14  3.81879E+02  1.65199E-08  2.8E-05
  8.000E-04  4.87388E-11  1.06937E-14  3.81879E+02  1.70528E-08  2.8E-05
  8.250E-04  5.18325E-11  1.06937E-14  3.81879E+02  1.75857E-08  2.8E-05
  8.500E-04  5.50215E-11  1.06937E-14  3.81879E+02  1.81186E-08  2.8E-05
  8.750E-04  5.83057E-11  1.06937E-14  3.81879E+02  1.86515E-08  2.8E-05
  9.000E-04  6.16850E-11  1.06937E-14  3.81879E+02  1.91844E-08  2.8E-05
  9.250E-04  6.51595E-11  1.06937E-14  3.81879E+02  1.97173E-08  2.8E-05
  9.500E-04  6.87293E-11  1.06937E-14  3.81879E+02  2.02502E-08  2.8E-05
  9.750E-04  7.23943E-11  1.06937E-14  3.81879E+02  2.07831E-08  2.8E-05
  1.000E-03  7.61544E-11  1.06937E-14  3.81879E+02  2.13160E-08  2.8E-05
  1.250E-03  1.18991E-10  1.06937E-14  3.81879E+02  2.66450E-08  2.8E-05
  1.500E-03  1.71347E-10  1.06937E-14  3.81878E+02  3.19740E-08  2.8E-05
  1.750E-03  2.33223E-10  1.06937E-14  3.81878E+02  3.73030E-08  2.8E-05
  2.000E-03  3.04617E-10  1.06936E-14  3.81877E+02  4.26320E-08  2.8E-05
  2.250E-03  3.85531E-10  1.06936E-14  3.81876E+02  4.79610E-08  2.8E-05
  2.500E-03  4.75965E-10  1.06936E-14  3.81875E+02  5.32900E-08  2.8E-05
  2.750E-03  5.75917E-10  1.06936E-14  3.81874E+02  5.86191E-08  2.8E-05
  3.000E-03  6.85389E-10  1.06935E-14  3.81873E+02  6.39481E-08  2.8E-05
  3.250E-03  8.04380E-10  1.06935E-14  3.81872E+02  6.92771E-08  2.8E-05
  3.500E-03  9.32891E-10  1.06935E-14  3.81871E+02  7.46061E-08  2.8E-05
  3.750E-03  1.07092E-09  1.06934E-14  3.81870E+02  7.99352E-08  2.8E-05
  4.000E-03  1.21847E-09  1.06934E-14  3.81869E+02  8.52642E-08  2.8E-05
  4.250E-03  1.37554E-09  1.06934E-14  3.81867E+02  9.05933E-08  2.8E-05
  4.500E-03  1.54213E-09  1.06933E-14  3.81866E+02  9.59224E-08  2.8E-05
  4.750E-03  1.71823E-09  1.06933E-14  3.81864E+02  1.01251E-07  2.8E-05
  5.000E-03  1.90386E-09  1.06932E-14  3.81862E+02  1.06581E-07  2.8E-05
  5.250E-03  2.09900E-09  1.06932E-14  3.81861E+02  1.11910E-07  2.8E-05
  5.500E-03  2.30367E-09  1.06931E-14  3.81859E+02  1.17239E-07  2.8E-05
  5.750E-03  2.51785E-09  1.06931E-14  3.81857E+02  1.22568E-07  2.8E-05
  6.000E-03  2.74156E-09  1.06930E-14  3.81855E+02  1.27897E-07  2.8E-05
  6.250E-03  2.97478E-09  1.06930E-14  3.81853E+02  1.33226E-07  2.8E-05
  6.500E-03  3.21752E-09  1.06929E-14  3.81851E+02  1.38555E-07  2.8E-05
  6.750E-03  3.46978E-09  1.06928E-14  3.81848E+02  1.43884E-07  2.8E-05
  7.000E-03  3.73156E-09  1.06928E-14  3.81846E+02  1.49214E-07  2.8E-05
  7.250E-03  4.00286E-09  1.06927E-14  3.81844E+02  1.54543E-07  2.8E-05
  7.500E-03  4.28368E-09  1.06926E-14  3.81841E+02  1.59872E-07  2.8E-05
  7.750E-03  4.57402E-09  1.06926E-14  3.81838E+02  1.65201E-07  2.8E-05
  8.000E-03  4.87388E-09  1.06925E-14  3.81836E+02  1.70530E-07  2.8E-05
  8.250E-03  5.18326E-09  1.06924E-14  3.81833E+02  1.75860E-07  2.8E-05
  8.500E-03  5.50215E-09  1.06923E-14  3.81830E+02  1.81189E-07  2.8E-05
  8.750E-03  5.83057E-09  1.06922E-14  3.81827E+02  1.86518E-07  2.8E-05
  9.000E-03  6.16850E-09  1.06922E-14  3.81824E+02  1.91847E-07  2.8E-05
  9.250E-03  6.51596E-09  1.06921E-14  3.81821E+02  1.97177E-07  2.8E-05
  9.500E-03  6.87293E-09  1.06920E-14  3.81818E+02  2.02506E-07  2.8E-05
  9.750E-03  7.23942E-09  1.06919E-14  3.81814E+02  2.07835E-07  2.8E-05
  1.000E-02  7.61544E-09  1.06918E-14  3.81811E+02  2.13165E-07  2.8E-05
  1.250E-02  1.18991E-08  1.06907E-14  3.81773E+02  2.66459E-07  2.7E-05
  1.500E-02  1.71347E-08  1.06894E-14  3.81726E+02  3.19756E-07  2.7E-05
  1.750E-02  2.33223E-08  1.06878E-14  3.81670E+02  3.73056E-07  2.7E-05
  2.000E-02  3.04617E-08  1.06861E-14  3.81606E+02  4.26358E-07  2.7E-05
  2.250E-02  3.85531E-08  1.06840E-14  3.81533E+02  4.79665E-07  2.7E-05
  2.500E-02  4.75965E-08  1.06818E-14  3.81452E+02  5.32975E-07  2.7E-05
  2.750E-02  5.75917E-08  1.06793E-14  3.81363E+02  5.86290E-07  2.7E-05
  3.000E-02  6.85389E-08  1.06765E-14  3.81265E+02  6.39610E-07  2.6E-05
  3.250E-02  8.04380E-08  1.06735E-14  3.81159E+02  6.92935E-07  2.6E-05
  3.500E-02  9.32891E-08  1.06703E-14  3.81045E+02  7.46266E-07  2.6E-05
  3.750E-02  1.07092E-07  1.06669E-14  3.80922E+02  7.99604E-07  2.6E-05
  4.000E-02  1.21847E-07  1.06632E-14  3.80791E+02  8.52949E-07  2.5E-05
  4.250E-02  1.37554E-07  1.06593E-14  3.80652E+02  9.06300E-07  2.5E-05
  4.500E-02  1.54213E-07  1.06552E-14  3.80505E+02  9.59660E-07  2.5E-05
  4.750E-02  1.71823E-07  1.06509E-14  3.80349E+02  1.01303E-06  2.4E-05
  5.000E-02  1.90386E-07  1.06463E-14  3.80186E+02  1.06640E-06  2.4E-05
  5.250E-02  2.09900E-07  1.06415E-14  3.80015E+02  1.11979E-06  2.4E-05
  5.500E-02  2.30367E-07  1.06365E-14  3.79835E+02  1.17319E-06  2.3E-05
  5.750E-02  2.51785E-07  1.06312E-14  3.79648E+02  1.22659E-06  2.3E-05
  6.000E-02  2.74156E-07  1.06258E-14  3.79453E+02  1.28001E-06  2.3E-05
  6.250E-02  2.97478E-07  1.06201E-14  3.79251E+02  1.33343E-06  2.2E-05
  6.500E-02  3.21752E-07  1.06142E-14  3.79041E+02  1.38687E-06  2.2E-05
  6.750E-02  3.46978E-07  1.06081E-14  3.78823E+02  1.44032E-06  2.1E-05
  7.000E-02  3.73156E-07  1.06018E-14  3.78597E+02  1.49379E-06  2.1E-05
  7.250E-02  4.00286E-07  1.05953E-14  3.78365E+02  1.54726E-06  2.1E-05
  7.500E-02  4.28368E-07  1.05886E-14  3.78125E+02  1.60075E-06  2.0E-05
  7.750E-02  4.57402E-07  1.05816E-14  3.77877E+02  1.65426E-06  2.0E-05
  8.000E-02  4.87388E-07  1.05745E-14  3.77623E+02  1.70777E-06  1.9E-05
  8.250E-02  5.18325E-07  1.05672E-14  3.77361E+02  1.76131E-06  1.9E-05
  8.500E-02  5.50215E-07  1.05597E-14  3.77093E+02  1.81486E-06  1.8E-05
  8.750E-02  5.83057E-07  1.05520E-14  3.76817E+02  1.86842E-06  1.8E-05
  9.000E-02  6.16850E-07  1.05440E-14  3.76535E+02  1.92200E-06  1.7E-05
  9.250E-02  6.51596E-07  1.05360E-14  3.76246E+02  1.97560E-06  1.7E-05
  9.500E-02  6.87293E-07  1.05277E-14  3.75950E+02  2.02922E-06  1.6E-05
  9.750E-02  7.23942E-07  1.05192E-14  3.75648E+02  2.08285E-06  1.5E-05
  1.000E-01  7.61543E-07  1.05106E-14  3.75339E+02  2.13650E-06  1.5E-05
  1.250E-01  1.18991E-06  1.04149E-14  3.71922E+02  2.67418E-06  9.1E-06
  1.500E-01  1.71347E-06  1.03045E-14  3.67980E+02  3.21432E-06  3.2E-06
  1.750E-01  2.33223E-06  1.01827E-14  3.63630E+02  3.75753E-06  2.2E-06
  2.000E-01  3.04617E-06  1.00528E-14  3.58991E+02  4.30445E-06  6.7E-06
  2.250E-01  3.85531E-06  9.91797E-15  3.54177E+02  4.85573E-06  9.8E-06
  2.500E-01  4.75964E-06  9.78121E-15  3.49293E+02  5.41203E-06  1.1E-05
  2.750E-01  5.75916E-06  9.64501E-15  3.44430E+02  5.97400E-06  1.2E-05
  3.000E-01  6.85388E-06  9.51147E-15  3.39661E+02  6.54218E-06  1.0E-05
  3.250E-01  8.04378E-06  9.38215E-15  3.35043E+02  7.11701E-06  7.5E-06
  3.500E-01  9.32888E-06  9.25810E-15  3.30613E+02  7.69877E-06  4.1E-06
  3.750E-01  1.07092E-05  9.13990E-15  3.26392E+02  8.28754E-06  3.5E-07
  4.000E-01  1.21846E-05  9.02769E-15  3.22385E+02  8.88318E-06  3.2E-06
  4.250E-01  1.37553E-05  8.92129E-15  3.18585E+02  9.48535E-06  6.2E-06
  4.500E-01  1.54212E-05  8.82022E-15  3.14976E+02  1.00935E-05  8.3E-06
  4.750E-01  1.71822E-05  8.72386E-15  3.11535E+02  1.07071E-05  9.2E-06
  5.000E-01  1.90385E-05  8.63150E-15  3.08237E+02  1.13253E-05  8.8E-06
  5.250E-01  2.09899E-05  8.54243E-15  3.05056E+02  1.19475E-05  7.4E-06
  5.500E-01  2.30365E-05  8.45599E-15  3.01969E+02  1.25729E-05  5.0E-06
  5.750E-01  2.51783E-05  8.37163E-15  2.98956E+02  1.32011E-05  2.1E-06
  6.000E-01  2.74153E-05  8.28894E-15  2.96003E+02  1.38316E-05  1.0E-06
  6.250E-01  2.97475E-05  8.20765E-15  2.93100E+02  1.44643E-05  3.9E-06
  6.500E-01  3.21749E-05  8.12762E-15  2.90243E+02  1.50991E-05  6.2E-06
  6.750E-01  3.46974E-05  8.04886E-15  2.87430E+02  1.57362E-05  7.6E-06
  7.000E-01  3.73152E-05  7.97142E-15  2.84665E+02  1.63760E-05  8.0E-06
  7.250E-01  4.00281E-05  7.89545E-15  2.81952E+02  1.70187E-05  7.3E-06
  7.500E-01  4.28362E-05  7.82107E-15  2.79296E+02  1.76650E-05  5.7E-06
  7.750E-01  4.57395E-05  7.74844E-15  2.76702E+02  1.83152E-05  3.4E-06
  8.000E-01  4.87380E-05  7.67764E-15  2.74174E+02  1.89696E-05  6.8E-07
  8.250E-01  5.18317E-05  7.60872E-15  2.71712E+02  1.96286E-05  2.1E-06
  8.500E-01  5.50205E-05  7.54166E-15  2.69317E+02  2.02922E-05  4.5E-06
  8.750E-01  5.83045E-05  7.47637E-15  2.66986E+02  2.09603E-05  6.2E-06
  9.000E-01  6.16838E-05  7.41272E-15  2.64713E+02  2.16327E-05  7.2E-06
  9.250E-01  6.51582E-05  7.35053E-15  2.62492E+02  2.23093E-05  7.1E-06
  9.500E-01  6.87277E-05  7.28963E-15  2.60317E+02  2.29894E-05  6.2E-06
  9.750E-01  7.23925E-05  7.22980E-15  2.58181E+02  2.36728E-05  4.4E-06
  1.000E+00  7.61524E-05  7.17087E-15  2.56077E+02  2.43591E-05  2.1E-06
  1.100E+00  9.21439E-05  6.94175E-15  2.47894E+02  2.71286E-05  6.3E-06
  1.200E+00  1.09658E-04  6.72180E-15  2.40040E+02  2.99418E-05  3.3E-06
  1.300E+00  1.28695E-04  6.51288E-15  2.32579E+02  3.28182E-05  5.3E-06
  1.400E+00  1.49255E-04  6.31429E-15  2.25487E+02  3.57645E-05  4.2E-06
  1.500E+00  1.71338E-04  6.12182E-15  2.18614E+02  3.87676E-05  4.2E-06
  1.600E+00  1.94942E-04  5.93298E-15  2.11871E+02  4.18223E-05  5.0E-06
  1.700E+00  2.20070E-04  5.74862E-15  2.05287E+02  4.49437E-05  3.0E-06
  1.800E+00  2.46720E-04  5.56941E-15  1.98887E+02  4.81446E-05  5.5E-06
  1.900E+00  2.74892E-04  5.39387E-15  1.92619E+02  5.14181E-05  1.7E-06
  2.000E+00  3.04586E-04  5.22050E-15  1.86428E+02  5.47545E-05  5.7E-06
  2.100E+00  3.35803E-04  5.04968E-15  1.80327E+02  5.81629E-05  4.9E-07
  2.200E+00  3.68542E-04  4.88234E-15  1.74351E+02  6.16585E-05  5.8E-06
  2.300E+00  4.02802E-04  4.71817E-15  1.68489E+02  6.52396E-05  7.5E-07
  2.400E+00  4.38585E-04  4.55633E-15  1.62710E+02  6.88938E-05  5.5E-06
  2.500E+00  4.75889E-04  4.39694E-15  1.57018E+02  7.26232E-05  1.9E-06
  2.600E+00  5.14715E-04  4.24079E-15  1.51441E+02  7.64422E-05  5.1E-06
  2.700E+00  5.55063E-04  4.08806E-15  1.45987E+02  8.03537E-05  3.0E-06
  2.800E+00  5.96931E-04  3.93831E-15  1.40640E+02  8.43442E-05  4.4E-06
  2.900E+00  6.40321E-04  3.79148E-15  1.35396E+02  8.84079E-05  4.0E-06
  3.000E+00  6.85233E-04  3.64812E-15  1.30277E+02  9.25560E-05  3.6E-06
  3.100E+00  7.31665E-04  3.50856E-15  1.25293E+02  9.67947E-05  4.8E-06
  3.200E+00  7.79618E-04  3.37257E-15  1.20437E+02  1.01111E-04  2.6E-06
  3.300E+00  8.29092E-04  3.24000E-15  1.15703E+02  1.05491E-04  5.4E-06
  3.400E+00  8.80086E-04  3.11113E-15  1.11100E+02  1.09941E-04  1.4E-06
  3.500E+00  9.32601E-04  2.98625E-15  1.06641E+02  1.14468E-04  5.8E-06
  3.600E+00  9.86636E-04  2.86526E-15  1.02320E+02  1.19061E-04  2.2E-07
  3.700E+00  1.04219E-03  2.74798E-15  9.81321E+01  1.23699E-04  5.9E-06
  3.800E+00  1.09927E-03  2.63447E-15  9.40788E+01  1.28379E-04  1.1E-06
  3.900E+00  1.15786E-03  2.52495E-15  9.01676E+01  1.33110E-04  5.7E-06
  4.000E+00  1.21797E-03  2.41937E-15  8.63972E+01  1.37882E-04  2.3E-06
  4.100E+00  1.27961E-03  2.31752E-15  8.27602E+01  1.42669E-04  5.3E-06
  4.200E+00  1.34276E-03  2.21935E-15  7.92546E+01  1.47458E-04  3.5E-06
  4.300E+00  1.40743E-03  2.12496E-15  7.58837E+01  1.52253E-04  4.7E-06
  4.400E+00  1.47362E-03  2.03432E-15  7.26468E+01  1.57049E-04  4.6E-06
  4.500E+00  1.54133E-03  1.94724E-15  6.95372E+01  1.61816E-04  3.8E-06
  4.600E+00  1.61056E-03  1.86360E-15  6.65504E+01  1.66530E-04  5.5E-06
  4.700E+00  1.68131E-03  1.78340E-15  6.36864E+01  1.71187E-04  2.6E-06
  4.800E+00  1.75357E-03  1.70662E-15  6.09446E+01  1.75788E-04  6.2E-06
  4.900E+00  1.82735E-03  1.63310E-15  5.83192E+01  1.80301E-04  1.3E-06
  5.000E+00  1.90265E-03  1.56269E-15  5.58045E+01  1.84689E-04  6.7E-06
  5.100E+00  1.97947E-03  1.49531E-15  5.33986E+01  1.88942E-04  1.0E-07
  5.200E+00  2.05780E-03  1.43095E-15  5.11001E+01  1.93059E-04  6.8E-06
  5.300E+00  2.13765E-03  1.36947E-15  4.89046E+01  1.97014E-04  1.6E-06
  5.400E+00  2.21902E-03  1.31071E-15  4.68064E+01  2.00760E-04  6.7E-06
  5.500E+00  2.30190E-03  1.25459E-15  4.48022E+01  2.04271E-04  3.1E-06
  5.600E+00  2.38630E-03  1.20105E-15  4.28902E+01  2.07551E-04  6.2E-06
  5.700E+00  2.47222E-03  1.14999E-15  4.10669E+01  2.10577E-04  4.5E-06
  5.800E+00  2.55965E-03  1.10128E-15  3.93273E+01  2.13296E-04  5.3E-06
  5.900E+00  2.64859E-03  1.05480E-15  3.76675E+01  2.15669E-04  5.8E-06
  6.000E+00  2.73905E-03  1.01049E-15  3.60854E+01  2.17695E-04  4.2E-06
  6.100E+00  2.83103E-03  9.68285E-16  3.45781E+01  2.19362E-04  6.8E-06
  6.200E+00  2.92452E-03  9.28057E-16  3.31415E+01  2.20615E-04  2.8E-06
  6.300E+00  3.01952E-03  8.89703E-16  3.17719E+01  2.21401E-04  7.6E-06
  6.400E+00  3.11604E-03  8.53157E-16  3.04668E+01  2.21711E-04  1.2E-06
  6.500E+00  3.21407E-03  8.18353E-16  2.92239E+01  2.21542E-04  8.1E-06
  6.600E+00  3.31362E-03  7.85199E-16  2.80400E+01  2.20847E-04  4.9E-07
  6.700E+00  3.41468E-03  7.53601E-16  2.69116E+01  2.19561E-04  8.2E-06
  6.800E+00  3.51725E-03  7.23493E-16  2.58364E+01  2.17660E-04  2.3E-06
  6.900E+00  3.62133E-03  6.94816E-16  2.48123E+01  2.15154E-04  7.9E-06
  7.000E+00  3.72692E-03  6.67500E-16  2.38368E+01  2.12007E-04  4.1E-06
  7.100E+00  3.83403E-03  6.41465E-16  2.29071E+01  2.08146E-04  7.2E-06
  7.200E+00  3.94265E-03  6.16650E-16  2.20210E+01  2.03535E-04  5.7E-06
  7.300E+00  4.05278E-03  5.93004E-16  2.11766E+01  1.98183E-04  6.1E-06
  7.400E+00  4.16442E-03  5.70471E-16  2.03719E+01  1.92078E-04  7.2E-06
  7.500E+00  4.27757E-03  5.48987E-16  1.96047E+01  1.85148E-04  4.7E-06
  7.600E+00  4.39223E-03  5.28498E-16  1.88730E+01  1.77336E-04  8.4E-06
  7.700E+00  4.50840E-03  5.08960E-16  1.81753E+01  1.68653E-04  3.0E-06
  7.800E+00  4.62608E-03  4.90326E-16  1.75099E+01  1.59107E-04  9.3E-06
  7.900E+00  4.74527E-03  4.72548E-16  1.68750E+01  1.48636E-04  1.0E-06
  8.000E+00  4.86597E-03  4.55582E-16  1.62691E+01  1.37171E-04  9.7E-06
  8.100E+00  4.98817E-03  4.39386E-16  1.56908E+01  1.24712E-04  1.1E-06
  8.200E+00  5.11188E-03  4.23925E-16  1.51386E+01  1.11284E-04  9.7E-06
  8.300E+00  5.23711E-03  4.09159E-16  1.46113E+01  9.68499E-05  3.2E-06
  8.400E+00  5.36383E-03  3.95053E-16  1.41076E+01  8.13296E-05  9.2E-06
  8.500E+00  5.49207E-03  3.81574E-16  1.36263E+01  6.47067E-05  5.3E-06
  8.600E+00  5.62181E-03  3.68690E-16  1.31662E+01  4.70206E-05  8.3E-06
  8.700E+00  5.75306E-03  3.56370E-16  1.27262E+01  2.82599E-05  7.2E-06
  8.800E+00  5.88581E-03  3.44588E-16  1.23054E+01  8.34721E-06  6.9E-06
  8.900E+00  6.02007E-03  3.33316E-16  1.19029E+01 -1.27539E-05  8.9E-06
  9.000E+00  6.15583E-03  3.22527E-16  1.15177E+01 -3.50015E-05  5.1E-06
  9.100E+00  6.29310E-03  3.12197E-16  1.11488E+01 -5.83773E-05  1.0E-05
  9.200E+00  6.43187E-03  3.02303E-16  1.07954E+01 -8.29456E-05  3.0E-06
  9.300E+00  6.57214E-03  2.92826E-16  1.04570E+01 -1.08761E-04  1.1E-05
  9.400E+00  6.71392E-03  2.83744E-16  1.01327E+01 -1.35791E-04  6.5E-07
  9.500E+00  6.85720E-03  2.75035E-16  9.82166E+00 -1.63990E-04  1.1E-05
  9.600E+00  7.00198E-03  2.66680E-16  9.52332E+00 -1.93400E-04  1.8E-06
  9.700E+00  7.14827E-03  2.58667E-16  9.23718E+00 -2.24086E-04  1.1E-05
  9.800E+00  7.29605E-03  2.50978E-16  8.96260E+00 -2.56033E-04  4.3E-06
  9.900E+00  7.44534E-03  2.43594E-16  8.69889E+00 -2.89181E-04  1.0E-05
  1.000E+01  7.59612E-03  2.36499E-16  8.44552E+00 -3.23537E-04  6.7E-06
  1.025E+01  7.97965E-03  2.19957E-16  7.85480E+00 -4.15009E-04  9.2E-07
  1.050E+01  8.37255E-03  2.04947E-16  7.31879E+00 -5.14142E-04  5.3E-06
  1.075E+01  8.77480E-03  1.91310E-16  6.83179E+00 -6.21071E-04  1.0E-05
  1.100E+01  9.18641E-03  1.78879E-16  6.38790E+00 -7.35523E-04  1.3E-05
  1.125E+01  9.60736E-03  1.67532E-16  5.98268E+00 -8.57453E-04  1.2E-05
  1.150E+01  1.00376E-02  1.57151E-16  5.61196E+00 -9.86662E-04  8.1E-06
  1.175E+01  1.04773E-02  1.47627E-16  5.27185E+00 -1.12285E-03  1.7E-06
  1.200E+01  1.09262E-02  1.38884E-16  4.95963E+00 -1.26588E-03  5.4E-06
  1.225E+01  1.13844E-02  1.30828E-16  4.67195E+00 -1.41531E-03  1.1E-05
  1.250E+01  1.18520E-02  1.23404E-16  4.40684E+00 -1.57092E-03  1.4E-05
  1.275E+01  1.23288E-02  1.16542E-16  4.16181E+00 -1.73225E-03  1.4E-05
  1.300E+01  1.28150E-02  1.10191E-16  3.93499E+00 -1.89893E-03  9.6E-06
  1.325E+01  1.33104E-02  1.04307E-16  3.72489E+00 -2.07052E-03  2.7E-06
  1.350E+01  1.38150E-02  9.88386E-17  3.52959E+00 -2.24653E-03  5.2E-06
  1.375E+01  1.43290E-02  9.37599E-17  3.34823E+00 -2.42645E-03  1.2E-05
  1.400E+01  1.48521E-02  8.90259E-17  3.17917E+00 -2.60976E-03  1.6E-05
  1.425E+01  1.53845E-02  8.46140E-17  3.02162E+00 -2.79587E-03  1.5E-05
  1.450E+01  1.59262E-02  8.04958E-17  2.87456E+00 -2.98418E-03  1.1E-05
