 #
 # Subroutine ELSEPA. Elastic scattering of electrons and positrons
 #                    by neutral atoms and positive ions
 #
 # Projectile: electron
 # Kinetic energy = 1.00000E+01 eV = 3.67493E-01 a.u.
 #
 #  ***  WARNING: Energy is too low.
 #                The reliability of the results is questionable.
 #
 # Element: Si,  Z =  14,  atomic weight = 2.80855E+01 g/mol
 #
 # Nuclear model: Fermi distribution
 #                Average radius = 3.25245E-13 cm
 #                Skin thickness = 5.46000E-14 cm
 #
 # Number of electrons = 14
 #
 # Electron density: analytical DHFS model
 #                   A1 =  5.15971D-01 ,   ALPHA1 = 5.84918D+00
 #                   A2 =  4.84029D-01 ,   ALPHA2 = 1.17314D+00
 #                   A3 =  0.00000D+00 ,   ALPHA3 = 1.00000D+00
 #                   Volume integral = 1.40000E+01
 #
 # Furness-McCarthy exchange potential
 #
 # Correlation-polarization potential (Buckingham):
 #                           Alpha = 5.38000E-24 cm**3
 #                            Bpol = 1.00000E+00
 #
 # Total elastic cross section = 1.25198E-15 cm**2 = 4.47092E+01 a0**2
 # 1st transport cross section = 8.03360E-16 cm**2 = 2.86885E+01 a0**2
 # 2nd transport cross section = 1.01807E-15 cm**2 = 3.63560E+01 a0**2
 #
 #
 # Differential cross section:                       MU=(1-COS(THETA))/2
 #
 #  THETA        MU          DCS          DCS        Sherman      error
 #  (deg)                 (cm**2/sr)   (a0**2/sr)    function
 #----------------------------------------------------------------------
  0.000E+00  0.00000E+00  1.33154E-15  4.75502E+01  0.00000E+00  1.0E-07
  1.000E-04  7.61557E-13  1.33154E-15  4.75502E+01 -4.60827E-09  1.0E-07
  1.250E-04  1.18994E-12  1.33154E-15  4.75502E+01 -5.76033E-09  1.0E-07
  1.500E-04  1.71346E-12  1.33154E-15  4.75502E+01 -6.91240E-09  1.0E-07
  1.750E-04  2.33225E-12  1.33154E-15  4.75502E+01 -8.06446E-09  1.0E-07
  2.000E-04  3.04617E-12  1.33154E-15  4.75502E+01 -9.21653E-09  1.0E-07
  2.250E-04  3.85530E-12  1.33154E-15  4.75502E+01 -1.03686E-08  1.0E-07
  2.500E-04  4.75964E-12  1.33154E-15  4.75502E+01 -1.15207E-08  1.0E-07
  2.750E-04  5.75917E-12  1.33154E-15  4.75502E+01 -1.26727E-08  1.0E-07
  3.000E-04  6.85391E-12  1.33154E-15  4.75502E+01 -1.38248E-08  1.0E-07
  3.250E-04  8.04379E-12  1.33154E-15  4.75502E+01 -1.49769E-08  1.0E-07
  3.500E-04  9.32893E-12  1.33154E-15  4.75502E+01 -1.61289E-08  1.0E-07
  3.750E-04  1.07092E-11  1.33154E-15  4.75502E+01 -1.72810E-08  1.0E-07
  4.000E-04  1.21847E-11  1.33154E-15  4.75502E+01 -1.84331E-08  1.0E-07
  4.250E-04  1.37554E-11  1.33154E-15  4.75502E+01 -1.95851E-08  1.0E-07
  4.500E-04  1.54213E-11  1.33154E-15  4.75502E+01 -2.07372E-08  1.0E-07
  4.750E-04  1.71823E-11  1.33154E-15  4.75502E+01 -2.18893E-08  1.0E-07
  5.000E-04  1.90386E-11  1.33154E-15  4.75502E+01 -2.30413E-08  1.0E-07
  5.250E-04  2.09900E-11  1.33154E-15  4.75502E+01 -2.41934E-08  1.0E-07
  5.500E-04  2.30367E-11  1.33154E-15  4.75502E+01 -2.53455E-08  1.0E-07
  5.750E-04  2.51785E-11  1.33154E-15  4.75502E+01 -2.64975E-08  1.0E-07
  6.000E-04  2.74156E-11  1.33154E-15  4.75502E+01 -2.76496E-08  1.0E-07
  6.250E-04  2.97478E-11  1.33154E-15  4.75502E+01 -2.88017E-08  1.0E-07
  6.500E-04  3.21752E-11  1.33154E-15  4.75502E+01 -2.99537E-08  1.0E-07
  6.750E-04  3.46979E-11  1.33154E-15  4.75502E+01 -3.11058E-08  1.0E-07
  7.000E-04  3.73157E-11  1.33154E-15  4.75502E+01 -3.22579E-08  1.0E-07
  7.250E-04  4.00286E-11  1.33154E-15  4.75502E+01 -3.34099E-08  1.0E-07
  7.500E-04  4.28368E-11  1.33154E-15  4.75502E+01 -3.45620E-08  1.0E-07
  7.750E-04  4.57402E-11  1.33154E-15  4.75502E+01 -3.57141E-08  1.0E-07
  8.000E-04  4.87388E-11  1.33154E-15  4.75502E+01 -3.68661E-08  1.0E-07
  8.250E-04  5.18325E-11  1.33154E-15  4.75502E+01 -3.80182E-08  1.0E-07
  8.500E-04  5.50215E-11  1.33154E-15  4.75502E+01 -3.91703E-08  1.0E-07
  8.750E-04  5.83057E-11  1.33154E-15  4.75502E+01 -4.03223E-08  1.0E-07
  9.000E-04  6.16850E-11  1.33154E-15  4.75502E+01 -4.14744E-08  1.0E-07
  9.250E-04  6.51595E-11  1.33154E-15  4.75502E+01 -4.26265E-08  1.0E-07
  9.500E-04  6.87293E-11  1.33154E-15  4.75502E+01 -4.37785E-08  1.0E-07
  9.750E-04  7.23943E-11  1.33154E-15  4.75502E+01 -4.49306E-08  1.0E-07
  1.000E-03  7.61544E-11  1.33154E-15  4.75502E+01 -4.60827E-08  1.0E-07
  1.250E-03  1.18991E-10  1.33154E-15  4.75502E+01 -5.76033E-08  1.0E-07
  1.500E-03  1.71347E-10  1.33154E-15  4.75502E+01 -6.91240E-08  1.0E-07
  1.750E-03  2.33223E-10  1.33154E-15  4.75502E+01 -8.06447E-08  1.0E-07
  2.000E-03  3.04617E-10  1.33154E-15  4.75502E+01 -9.21653E-08  1.0E-07
  2.250E-03  3.85531E-10  1.33154E-15  4.75502E+01 -1.03686E-07  1.0E-07
  2.500E-03  4.75965E-10  1.33154E-15  4.75502E+01 -1.15207E-07  1.0E-07
  2.750E-03  5.75917E-10  1.33154E-15  4.75502E+01 -1.26727E-07  1.0E-07
  3.000E-03  6.85389E-10  1.33154E-15  4.75502E+01 -1.38248E-07  1.0E-07
  3.250E-03  8.04380E-10  1.33154E-15  4.75502E+01 -1.49769E-07  1.0E-07
  3.500E-03  9.32891E-10  1.33154E-15  4.75502E+01 -1.61289E-07  1.0E-07
  3.750E-03  1.07092E-09  1.33154E-15  4.75502E+01 -1.72810E-07  1.0E-07
  4.000E-03  1.21847E-09  1.33154E-15  4.75502E+01 -1.84331E-07  1.0E-07
  4.250E-03  1.37554E-09  1.33154E-15  4.75502E+01 -1.95851E-07  1.0E-07
  4.500E-03  1.54213E-09  1.33154E-15  4.75502E+01 -2.07372E-07  1.0E-07
  4.750E-03  1.71823E-09  1.33154E-15  4.75502E+01 -2.18893E-07  1.0E-07
  5.000E-03  1.90386E-09  1.33154E-15  4.75501E+01 -2.30413E-07  1.0E-07
  5.250E-03  2.09900E-09  1.33154E-15  4.75501E+01 -2.41934E-07  1.0E-07
  5.500E-03  2.30367E-09  1.33154E-15  4.75501E+01 -2.53455E-07  1.0E-07
  5.750E-03  2.51785E-09  1.33154E-15  4.75501E+01 -2.64975E-07  1.0E-07
  6.000E-03  2.74156E-09  1.33154E-15  4.75501E+01 -2.76496E-07  1.0E-07
  6.250E-03  2.97478E-09  1.33154E-15  4.75501E+01 -2.88017E-07  1.0E-07
  6.500E-03  3.21752E-09  1.33154E-15  4.75501E+01 -2.99538E-07  1.0E-07
  6.750E-03  3.46978E-09  1.33154E-15  4.75501E+01 -3.11058E-07  1.0E-07
  7.000E-03  3.73156E-09  1.33154E-15  4.75501E+01 -3.22579E-07  1.0E-07
  7.250E-03  4.00286E-09  1.33154E-15  4.75501E+01 -3.34100E-07  1.0E-07
  7.500E-03  4.28368E-09  1.33154E-15  4.75501E+01 -3.45620E-07  1.0E-07
  7.750E-03  4.57402E-09  1.33154E-15  4.75501E+01 -3.57141E-07  1.0E-07
  8.000E-03  4.87388E-09  1.33154E-15  4.75501E+01 -3.68662E-07  1.0E-07
  8.250E-03  5.18326E-09  1.33154E-15  4.75501E+01 -3.80182E-07  1.0E-07
  8.500E-03  5.50215E-09  1.33154E-15  4.75501E+01 -3.91703E-07  1.0E-07
  8.750E-03  5.83057E-09  1.33154E-15  4.75501E+01 -4.03224E-07  1.0E-07
  9.000E-03  6.16850E-09  1.33154E-15  4.75501E+01 -4.14745E-07  1.0E-07
  9.250E-03  6.51596E-09  1.33154E-15  4.75500E+01 -4.26265E-07  1.0E-07
  9.500E-03  6.87293E-09  1.33154E-15  4.75500E+01 -4.37786E-07  1.0E-07
  9.750E-03  7.23942E-09  1.33154E-15  4.75500E+01 -4.49307E-07  1.0E-07
  1.000E-02  7.61544E-09  1.33154E-15  4.75500E+01 -4.60828E-07  1.0E-07
  1.250E-02  1.18991E-08  1.33153E-15  4.75499E+01 -5.76035E-07  1.0E-07
  1.500E-02  1.71347E-08  1.33153E-15  4.75498E+01 -6.91243E-07  1.0E-07
  1.750E-02  2.33223E-08  1.33153E-15  4.75497E+01 -8.06452E-07  1.0E-07
  2.000E-02  3.04617E-08  1.33152E-15  4.75495E+01 -9.21661E-07  1.0E-07
  2.250E-02  3.85531E-08  1.33152E-15  4.75493E+01 -1.03687E-06  1.0E-07
  2.500E-02  4.75965E-08  1.33151E-15  4.75492E+01 -1.15208E-06  1.0E-07
  2.750E-02  5.75917E-08  1.33151E-15  4.75489E+01 -1.26729E-06  1.0E-07
  3.000E-02  6.85389E-08  1.33150E-15  4.75487E+01 -1.38251E-06  1.0E-07
  3.250E-02  8.04380E-08  1.33149E-15  4.75484E+01 -1.49772E-06  1.0E-07
  3.500E-02  9.32891E-08  1.33148E-15  4.75482E+01 -1.61294E-06  1.0E-07
  3.750E-02  1.07092E-07  1.33148E-15  4.75479E+01 -1.72815E-06  1.0E-07
  4.000E-02  1.21847E-07  1.33147E-15  4.75475E+01 -1.84337E-06  1.0E-07
  4.250E-02  1.37554E-07  1.33146E-15  4.75472E+01 -1.95859E-06  1.0E-07
  4.500E-02  1.54213E-07  1.33145E-15  4.75468E+01 -2.07381E-06  1.0E-07
  4.750E-02  1.71823E-07  1.33144E-15  4.75464E+01 -2.18903E-06  1.0E-07
  5.000E-02  1.90386E-07  1.33142E-15  4.75460E+01 -2.30426E-06  1.0E-07
  5.250E-02  2.09900E-07  1.33141E-15  4.75456E+01 -2.41949E-06  1.0E-07
  5.500E-02  2.30367E-07  1.33140E-15  4.75452E+01 -2.53471E-06  1.0E-07
  5.750E-02  2.51785E-07  1.33139E-15  4.75447E+01 -2.64995E-06  1.0E-07
  6.000E-02  2.74156E-07  1.33137E-15  4.75442E+01 -2.76518E-06  1.0E-07
  6.250E-02  2.97478E-07  1.33136E-15  4.75437E+01 -2.88041E-06  1.0E-07
  6.500E-02  3.21752E-07  1.33134E-15  4.75432E+01 -2.99565E-06  1.0E-07
  6.750E-02  3.46978E-07  1.33133E-15  4.75426E+01 -3.11089E-06  1.0E-07
  7.000E-02  3.73156E-07  1.33131E-15  4.75420E+01 -3.22613E-06  1.0E-07
  7.250E-02  4.00286E-07  1.33130E-15  4.75414E+01 -3.34138E-06  1.0E-07
  7.500E-02  4.28368E-07  1.33128E-15  4.75408E+01 -3.45663E-06  1.0E-07
  7.750E-02  4.57402E-07  1.33126E-15  4.75402E+01 -3.57188E-06  1.0E-07
  8.000E-02  4.87388E-07  1.33124E-15  4.75395E+01 -3.68713E-06  1.0E-07
  8.250E-02  5.18325E-07  1.33122E-15  4.75389E+01 -3.80239E-06  1.0E-07
  8.500E-02  5.50215E-07  1.33120E-15  4.75382E+01 -3.91765E-06  1.0E-07
  8.750E-02  5.83057E-07  1.33118E-15  4.75375E+01 -4.03291E-06  1.0E-07
  9.000E-02  6.16850E-07  1.33116E-15  4.75367E+01 -4.14818E-06  1.0E-07
  9.250E-02  6.51596E-07  1.33114E-15  4.75360E+01 -4.26345E-06  1.0E-07
  9.500E-02  6.87293E-07  1.33112E-15  4.75352E+01 -4.37872E-06  1.0E-07
  9.750E-02  7.23942E-07  1.33110E-15  4.75344E+01 -4.49400E-06  1.0E-07
  1.000E-01  7.61543E-07  1.33108E-15  4.75336E+01 -4.60928E-06  1.0E-07
  1.250E-01  1.18991E-06  1.33081E-15  4.75242E+01 -5.76231E-06  1.0E-07
  1.500E-01  1.71347E-06  1.33049E-15  4.75128E+01 -6.91582E-06  1.0E-07
  1.750E-01  2.33223E-06  1.33012E-15  4.74993E+01 -8.06989E-06  1.0E-07
  2.000E-01  3.04617E-06  1.32968E-15  4.74837E+01 -9.22463E-06  1.0E-07
  2.250E-01  3.85531E-06  1.32919E-15  4.74661E+01 -1.03801E-05  1.0E-07
  2.500E-01  4.75964E-06  1.32864E-15  4.74465E+01 -1.15365E-05  1.0E-07
  2.750E-01  5.75916E-06  1.32803E-15  4.74248E+01 -1.26938E-05  1.0E-07
  3.000E-01  6.85388E-06  1.32737E-15  4.74011E+01 -1.38521E-05  1.0E-07
  3.250E-01  8.04378E-06  1.32664E-15  4.73753E+01 -1.50116E-05  1.0E-07
  3.500E-01  9.32888E-06  1.32587E-15  4.73476E+01 -1.61723E-05  1.0E-07
  3.750E-01  1.07092E-05  1.32503E-15  4.73178E+01 -1.73343E-05  1.0E-07
  4.000E-01  1.21846E-05  1.32414E-15  4.72861E+01 -1.84977E-05  1.0E-07
  4.250E-01  1.37553E-05  1.32320E-15  4.72523E+01 -1.96626E-05  1.0E-07
  4.500E-01  1.54212E-05  1.32220E-15  4.72166E+01 -2.08291E-05  1.0E-07
  4.750E-01  1.71822E-05  1.32115E-15  4.71790E+01 -2.19973E-05  1.0E-07
  5.000E-01  1.90385E-05  1.32004E-15  4.71394E+01 -2.31673E-05  1.0E-07
  5.250E-01  2.09899E-05  1.31887E-15  4.70978E+01 -2.43391E-05  1.0E-07
  5.500E-01  2.30365E-05  1.31766E-15  4.70544E+01 -2.55129E-05  1.0E-07
  5.750E-01  2.51783E-05  1.31639E-15  4.70091E+01 -2.66888E-05  1.0E-07
  6.000E-01  2.74153E-05  1.31507E-15  4.69619E+01 -2.78667E-05  1.0E-07
  6.250E-01  2.97475E-05  1.31369E-15  4.69128E+01 -2.90469E-05  1.0E-07
  6.500E-01  3.21749E-05  1.31227E-15  4.68620E+01 -3.02294E-05  1.0E-07
  6.750E-01  3.46974E-05  1.31079E-15  4.68092E+01 -3.14142E-05  1.0E-07
  7.000E-01  3.73152E-05  1.30927E-15  4.67547E+01 -3.26016E-05  1.0E-07
  7.250E-01  4.00281E-05  1.30769E-15  4.66984E+01 -3.37915E-05  1.0E-07
  7.500E-01  4.28362E-05  1.30606E-15  4.66404E+01 -3.49841E-05  1.0E-07
  7.750E-01  4.57395E-05  1.30439E-15  4.65806E+01 -3.61793E-05  1.0E-07
  8.000E-01  4.87380E-05  1.30267E-15  4.65190E+01 -3.73774E-05  1.0E-07
  8.250E-01  5.18317E-05  1.30090E-15  4.64558E+01 -3.85784E-05  1.0E-07
  8.500E-01  5.50205E-05  1.29908E-15  4.63909E+01 -3.97824E-05  1.0E-07
  8.750E-01  5.83045E-05  1.29721E-15  4.63244E+01 -4.09894E-05  1.0E-07
  9.000E-01  6.16838E-05  1.29531E-15  4.62562E+01 -4.21995E-05  1.0E-07
  9.250E-01  6.51582E-05  1.29335E-15  4.61864E+01 -4.34129E-05  1.0E-07
  9.500E-01  6.87277E-05  1.29135E-15  4.61151E+01 -4.46295E-05  1.0E-07
  9.750E-01  7.23925E-05  1.28931E-15  4.60421E+01 -4.58495E-05  1.0E-07
  1.000E+00  7.61524E-05  1.28723E-15  4.59677E+01 -4.70729E-05  1.0E-07
  1.100E+00  9.21439E-05  1.27847E-15  4.56551E+01 -5.20025E-05  1.0E-07
  1.200E+00  1.09658E-04  1.26910E-15  4.53202E+01 -5.69929E-05  1.0E-07
  1.300E+00  1.28695E-04  1.25914E-15  4.49647E+01 -6.20483E-05  1.0E-07
  1.400E+00  1.49255E-04  1.24866E-15  4.45903E+01 -6.71728E-05  1.0E-07
  1.500E+00  1.71338E-04  1.23770E-15  4.41990E+01 -7.23699E-05  1.0E-07
  1.600E+00  1.94942E-04  1.22632E-15  4.37925E+01 -7.76432E-05  1.0E-07
  1.700E+00  2.20070E-04  1.21456E-15  4.33728E+01 -8.29955E-05  1.0E-07
  1.800E+00  2.46720E-04  1.20249E-15  4.29417E+01 -8.84296E-05  1.0E-07
  1.900E+00  2.74892E-04  1.19015E-15  4.25009E+01 -9.39478E-05  1.0E-07
  2.000E+00  3.04586E-04  1.17758E-15  4.20522E+01 -9.95520E-05  1.0E-07
  2.100E+00  3.35803E-04  1.16484E-15  4.15973E+01 -1.05244E-04  1.0E-07
  2.200E+00  3.68542E-04  1.15197E-15  4.11376E+01 -1.11025E-04  1.0E-07
  2.300E+00  4.02802E-04  1.13901E-15  4.06748E+01 -1.16895E-04  1.0E-07
  2.400E+00  4.38585E-04  1.12600E-15  4.02103E+01 -1.22857E-04  1.0E-07
  2.500E+00  4.75889E-04  1.11298E-15  3.97452E+01 -1.28909E-04  1.0E-07
  2.600E+00  5.14715E-04  1.09997E-15  3.92808E+01 -1.35053E-04  1.0E-07
  2.700E+00  5.55063E-04  1.08702E-15  3.88182E+01 -1.41288E-04  1.0E-07
  2.800E+00  5.96931E-04  1.07414E-15  3.83582E+01 -1.47613E-04  1.0E-07
  2.900E+00  6.40321E-04  1.06136E-15  3.79018E+01 -1.54029E-04  1.0E-07
  3.000E+00  6.85233E-04  1.04870E-15  3.74497E+01 -1.60535E-04  1.0E-07
  3.100E+00  7.31665E-04  1.03617E-15  3.70024E+01 -1.67131E-04  1.0E-07
  3.200E+00  7.79618E-04  1.02380E-15  3.65604E+01 -1.73815E-04  1.0E-07
  3.300E+00  8.29092E-04  1.01158E-15  3.61242E+01 -1.80587E-04  1.0E-07
  3.400E+00  8.80086E-04  9.99535E-16  3.56941E+01 -1.87447E-04  1.0E-07
  3.500E+00  9.32601E-04  9.87664E-16  3.52701E+01 -1.94393E-04  1.0E-07
  3.600E+00  9.86636E-04  9.75972E-16  3.48526E+01 -2.01426E-04  1.0E-07
  3.700E+00  1.04219E-03  9.64459E-16  3.44414E+01 -2.08546E-04  1.0E-07
  3.800E+00  1.09927E-03  9.53125E-16  3.40367E+01 -2.15751E-04  1.0E-07
  3.900E+00  1.15786E-03  9.41967E-16  3.36383E+01 -2.23043E-04  1.0E-07
  4.000E+00  1.21797E-03  9.30983E-16  3.32460E+01 -2.30421E-04  1.0E-07
  4.100E+00  1.27961E-03  9.20167E-16  3.28597E+01 -2.37886E-04  1.0E-07
  4.200E+00  1.34276E-03  9.09512E-16  3.24793E+01 -2.45439E-04  1.0E-07
  4.300E+00  1.40743E-03  8.99013E-16  3.21043E+01 -2.53080E-04  1.0E-07
  4.400E+00  1.47362E-03  8.88661E-16  3.17347E+01 -2.60811E-04  1.0E-07
  4.500E+00  1.54133E-03  8.78450E-16  3.13700E+01 -2.68634E-04  1.0E-07
  4.600E+00  1.61056E-03  8.68371E-16  3.10101E+01 -2.76549E-04  1.0E-07
  4.700E+00  1.68131E-03  8.58416E-16  3.06546E+01 -2.84558E-04  1.0E-07
  4.800E+00  1.75357E-03  8.48579E-16  3.03033E+01 -2.92664E-04  1.0E-07
  4.900E+00  1.82735E-03  8.38851E-16  2.99559E+01 -3.00869E-04  1.0E-07
  5.000E+00  1.90265E-03  8.29225E-16  2.96122E+01 -3.09174E-04  1.0E-07
  5.100E+00  1.97947E-03  8.19695E-16  2.92719E+01 -3.17582E-04  1.0E-07
  5.200E+00  2.05780E-03  8.10256E-16  2.89348E+01 -3.26096E-04  1.0E-07
  5.300E+00  2.13765E-03  8.00901E-16  2.86007E+01 -3.34717E-04  1.0E-07
  5.400E+00  2.21902E-03  7.91626E-16  2.82695E+01 -3.43449E-04  1.0E-07
  5.500E+00  2.30190E-03  7.82428E-16  2.79410E+01 -3.52293E-04  1.0E-07
  5.600E+00  2.38630E-03  7.73303E-16  2.76152E+01 -3.61252E-04  1.0E-07
  5.700E+00  2.47222E-03  7.64249E-16  2.72918E+01 -3.70327E-04  1.0E-07
  5.800E+00  2.55965E-03  7.55265E-16  2.69710E+01 -3.79522E-04  1.0E-07
  5.900E+00  2.64859E-03  7.46348E-16  2.66526E+01 -3.88838E-04  1.0E-07
  6.000E+00  2.73905E-03  7.37500E-16  2.63366E+01 -3.98277E-04  1.0E-07
  6.100E+00  2.83103E-03  7.28719E-16  2.60230E+01 -4.07841E-04  1.0E-07
  6.200E+00  2.92452E-03  7.20007E-16  2.57119E+01 -4.17530E-04  1.0E-07
  6.300E+00  3.01952E-03  7.11365E-16  2.54033E+01 -4.27347E-04  1.0E-07
  6.400E+00  3.11604E-03  7.02794E-16  2.50972E+01 -4.37292E-04  1.0E-07
  6.500E+00  3.21407E-03  6.94296E-16  2.47938E+01 -4.47367E-04  1.0E-07
  6.600E+00  3.31362E-03  6.85873E-16  2.44930E+01 -4.57572E-04  1.0E-07
  6.700E+00  3.41468E-03  6.77527E-16  2.41949E+01 -4.67908E-04  1.0E-07
  6.800E+00  3.51725E-03  6.69260E-16  2.38997E+01 -4.78375E-04  1.0E-07
  6.900E+00  3.62133E-03  6.61074E-16  2.36074E+01 -4.88973E-04  1.0E-07
  7.000E+00  3.72692E-03  6.52972E-16  2.33181E+01 -4.99703E-04  1.0E-07
  7.100E+00  3.83403E-03  6.44955E-16  2.30318E+01 -5.10564E-04  1.0E-07
  7.200E+00  3.94265E-03  6.37025E-16  2.27486E+01 -5.21558E-04  1.0E-07
  7.300E+00  4.05278E-03  6.29184E-16  2.24686E+01 -5.32682E-04  1.0E-07
  7.400E+00  4.16442E-03  6.21433E-16  2.21918E+01 -5.43938E-04  1.0E-07
  7.500E+00  4.27757E-03  6.13773E-16  2.19182E+01 -5.55326E-04  1.0E-07
  7.600E+00  4.39223E-03  6.06205E-16  2.16480E+01 -5.66845E-04  1.0E-07
  7.700E+00  4.50840E-03  5.98730E-16  2.13810E+01 -5.78494E-04  1.0E-07
  7.800E+00  4.62608E-03  5.91347E-16  2.11174E+01 -5.90275E-04  1.0E-07
  7.900E+00  4.74527E-03  5.84056E-16  2.08570E+01 -6.02187E-04  1.0E-07
  8.000E+00  4.86597E-03  5.76857E-16  2.06000E+01 -6.14231E-04  1.0E-07
  8.100E+00  4.98817E-03  5.69750E-16  2.03462E+01 -6.26406E-04  1.0E-07
  8.200E+00  5.11188E-03  5.62733E-16  2.00956E+01 -6.38714E-04  1.0E-07
  8.300E+00  5.23711E-03  5.55806E-16  1.98482E+01 -6.51154E-04  1.0E-07
  8.400E+00  5.36383E-03  5.48966E-16  1.96039E+01 -6.63727E-04  1.0E-07
  8.500E+00  5.49207E-03  5.42213E-16  1.93628E+01 -6.76435E-04  1.0E-07
  8.600E+00  5.62181E-03  5.35545E-16  1.91246E+01 -6.89278E-04  1.0E-07
  8.700E+00  5.75306E-03  5.28959E-16  1.88895E+01 -7.02258E-04  1.0E-07
  8.800E+00  5.88581E-03  5.22455E-16  1.86572E+01 -7.15374E-04  1.0E-07
  8.900E+00  6.02007E-03  5.16030E-16  1.84278E+01 -7.28630E-04  1.0E-07
  9.000E+00  6.15583E-03  5.09682E-16  1.82011E+01 -7.42025E-04  1.0E-07
  9.100E+00  6.29310E-03  5.03411E-16  1.79771E+01 -7.55562E-04  1.0E-07
  9.200E+00  6.43187E-03  4.97213E-16  1.77558E+01 -7.69242E-04  1.0E-07
  9.300E+00  6.57214E-03  4.91088E-16  1.75371E+01 -7.83066E-04  1.0E-07
  9.400E+00  6.71392E-03  4.85033E-16  1.73208E+01 -7.97035E-04  1.0E-07
  9.500E+00  6.85720E-03  4.79048E-16  1.71071E+01 -8.11151E-04  1.0E-07
  9.600E+00  7.00198E-03  4.73131E-16  1.68958E+01 -8.25415E-04  1.0E-07
  9.700E+00  7.14827E-03  4.67281E-16  1.66869E+01 -8.39828E-04  1.0E-07
  9.800E+00  7.29605E-03  4.61497E-16  1.64804E+01 -8.54391E-04  1.0E-07
  9.900E+00  7.44534E-03  4.55778E-16  1.62761E+01 -8.69104E-04  1.0E-07
  1.000E+01  7.59612E-03  4.50123E-16  1.60742E+01 -8.83968E-04  1.0E-07
  1.025E+01  7.97965E-03  4.36266E-16  1.55794E+01 -9.21791E-04  1.0E-07
  1.050E+01  8.37255E-03  4.22805E-16  1.50986E+01 -9.60557E-04  1.0E-07
  1.075E+01  8.77480E-03  4.09738E-16  1.46320E+01 -1.00026E-03  1.0E-07
  1.100E+01  9.18641E-03  3.97068E-16  1.41796E+01 -1.04087E-03  1.0E-07
  1.125E+01  9.60736E-03  3.84799E-16  1.37414E+01 -1.08236E-03  1.0E-07
  1.150E+01  1.00376E-02  3.72931E-16  1.33176E+01 -1.12469E-03  1.0E-07
  1.175E+01  1.04773E-02  3.61467E-16  1.29082E+01 -1.16783E-03  1.0E-07
  1.200E+01  1.09262E-02  3.50403E-16  1.25131E+01 -1.21172E-03  1.0E-07
  1.225E+01  1.13844E-02  3.39735E-16  1.21322E+01 -1.25632E-03  1.0E-07
  1.250E+01  1.18520E-02  3.29453E-16  1.17650E+01 -1.30158E-03  1.0E-07
  1.275E+01  1.23288E-02  3.19548E-16  1.14113E+01 -1.34744E-03  1.0E-07
  1.300E+01  1.28150E-02  3.10008E-16  1.10706E+01 -1.39385E-03  1.0E-07
  1.325E+01  1.33104E-02  3.00819E-16  1.07424E+01 -1.44075E-03  1.0E-07
  1.350E+01  1.38150E-02  2.91970E-16  1.04265E+01 -1.48807E-03  1.0E-07
  1.375E+01  1.43290E-02  2.83451E-16  1.01222E+01 -1.53574E-03  1.0E-07
  1.400E+01  1.48521E-02  2.75250E-16  9.82937E+00 -1.58367E-03  1.0E-07
