 #
 # Subroutine ELSEPA. Elastic scattering of electrons and positrons
 #                    by neutral atoms and positive ions
 #
 # Projectile: electron
 # Kinetic energy = 3.00000E+03 eV = 1.10248E+02 a.u.
 #
 # Element: Si,  Z =  14,  atomic weight = 2.80855E+01 g/mol
 #
 # Nuclear model: Fermi distribution
 #                Average radius = 3.25245E-13 cm
 #                Skin thickness = 5.46000E-14 cm
 #
 # Number of electrons = 14
 #
 # Electron density: analytical DHFS model
 #                   A1 =  5.15971D-01 ,   ALPHA1 = 5.84918D+00
 #                   A2 =  4.84029D-01 ,   ALPHA2 = 1.17314D+00
 #                   A3 =  0.00000D+00 ,   ALPHA3 = 1.00000D+00
 #                   Volume integral = 1.40000E+01
 #
 # Furness-McCarthy exchange potential
 #
 # Correlation-polarization potential (Buckingham):
 #                           Alpha = 5.38000E-24 cm**3
 #                            Bpol = 1.35785E+01
 #
 # Total elastic cross section = 5.80589E-17 cm**2 = 2.07332E+00 a0**2
 # 1st transport cross section = 2.35436E-18 cm**2 = 8.40756E-02 a0**2
 # 2nd transport cross section = 4.84244E-18 cm**2 = 1.72927E-01 a0**2
 #
 #
 # Differential cross section:                       MU=(1-COS(THETA))/2
 #
 #  THETA        MU          DCS          DCS        Sherman      error
 #  (deg)                 (cm**2/sr)   (a0**2/sr)    function
 #----------------------------------------------------------------------
  0.000E+00  0.00000E+00  5.09250E-15  1.81856E+02  0.00000E+00  3.7E-05
  1.000E-04  7.61557E-13  5.09250E-15  1.81856E+02  2.15601E-10  3.7E-05
  1.250E-04  1.18994E-12  5.09250E-15  1.81856E+02  2.69501E-10  3.7E-05
  1.500E-04  1.71346E-12  5.09250E-15  1.81856E+02  3.23401E-10  3.7E-05
  1.750E-04  2.33225E-12  5.09250E-15  1.81856E+02  3.77301E-10  3.7E-05
  2.000E-04  3.04617E-12  5.09250E-15  1.81856E+02  4.31201E-10  3.7E-05
  2.250E-04  3.85530E-12  5.09250E-15  1.81856E+02  4.85101E-10  3.7E-05
  2.500E-04  4.75964E-12  5.09249E-15  1.81856E+02  5.39001E-10  3.7E-05
  2.750E-04  5.75917E-12  5.09249E-15  1.81856E+02  5.92902E-10  3.7E-05
  3.000E-04  6.85391E-12  5.09249E-15  1.81856E+02  6.46802E-10  3.7E-05
  3.250E-04  8.04379E-12  5.09249E-15  1.81856E+02  7.00702E-10  3.7E-05
  3.500E-04  9.32893E-12  5.09249E-15  1.81856E+02  7.54602E-10  3.7E-05
  3.750E-04  1.07092E-11  5.09249E-15  1.81856E+02  8.08502E-10  3.7E-05
  4.000E-04  1.21847E-11  5.09249E-15  1.81856E+02  8.62402E-10  3.7E-05
  4.250E-04  1.37554E-11  5.09249E-15  1.81856E+02  9.16302E-10  3.7E-05
  4.500E-04  1.54213E-11  5.09249E-15  1.81856E+02  9.70202E-10  3.7E-05
  4.750E-04  1.71823E-11  5.09249E-15  1.81856E+02  1.02410E-09  3.7E-05
  5.000E-04  1.90386E-11  5.09249E-15  1.81856E+02  1.07800E-09  3.7E-05
  5.250E-04  2.09900E-11  5.09249E-15  1.81856E+02  1.13190E-09  3.7E-05
  5.500E-04  2.30367E-11  5.09249E-15  1.81856E+02  1.18580E-09  3.7E-05
  5.750E-04  2.51785E-11  5.09249E-15  1.81856E+02  1.23970E-09  3.7E-05
  6.000E-04  2.74156E-11  5.09249E-15  1.81856E+02  1.29360E-09  3.7E-05
  6.250E-04  2.97478E-11  5.09249E-15  1.81856E+02  1.34750E-09  3.7E-05
  6.500E-04  3.21752E-11  5.09249E-15  1.81856E+02  1.40140E-09  3.7E-05
  6.750E-04  3.46979E-11  5.09249E-15  1.81856E+02  1.45530E-09  3.7E-05
  7.000E-04  3.73157E-11  5.09249E-15  1.81856E+02  1.50920E-09  3.7E-05
  7.250E-04  4.00286E-11  5.09249E-15  1.81856E+02  1.56310E-09  3.7E-05
  7.500E-04  4.28368E-11  5.09249E-15  1.81856E+02  1.61700E-09  3.7E-05
  7.750E-04  4.57402E-11  5.09249E-15  1.81856E+02  1.67090E-09  3.7E-05
  8.000E-04  4.87388E-11  5.09249E-15  1.81856E+02  1.72480E-09  3.7E-05
  8.250E-04  5.18325E-11  5.09249E-15  1.81856E+02  1.77870E-09  3.7E-05
  8.500E-04  5.50215E-11  5.09249E-15  1.81856E+02  1.83260E-09  3.7E-05
  8.750E-04  5.83057E-11  5.09249E-15  1.81856E+02  1.88650E-09  3.7E-05
  9.000E-04  6.16850E-11  5.09249E-15  1.81856E+02  1.94040E-09  3.7E-05
  9.250E-04  6.51595E-11  5.09249E-15  1.81856E+02  1.99430E-09  3.7E-05
  9.500E-04  6.87293E-11  5.09248E-15  1.81856E+02  2.04820E-09  3.7E-05
  9.750E-04  7.23943E-11  5.09248E-15  1.81856E+02  2.10210E-09  3.7E-05
  1.000E-03  7.61544E-11  5.09248E-15  1.81856E+02  2.15600E-09  3.7E-05
  1.250E-03  1.18991E-10  5.09248E-15  1.81856E+02  2.69500E-09  3.7E-05
  1.500E-03  1.71347E-10  5.09247E-15  1.81855E+02  3.23400E-09  3.7E-05
  1.750E-03  2.33223E-10  5.09246E-15  1.81855E+02  3.77300E-09  3.7E-05
  2.000E-03  3.04617E-10  5.09245E-15  1.81855E+02  4.31199E-09  3.7E-05
  2.250E-03  3.85531E-10  5.09243E-15  1.81854E+02  4.85098E-09  3.7E-05
  2.500E-03  4.75965E-10  5.09242E-15  1.81854E+02  5.38997E-09  3.7E-05
  2.750E-03  5.75917E-10  5.09240E-15  1.81853E+02  5.92896E-09  3.7E-05
  3.000E-03  6.85389E-10  5.09238E-15  1.81852E+02  6.46794E-09  3.7E-05
  3.250E-03  8.04380E-10  5.09236E-15  1.81852E+02  7.00692E-09  3.7E-05
  3.500E-03  9.32891E-10  5.09234E-15  1.81851E+02  7.54590E-09  3.7E-05
  3.750E-03  1.07092E-09  5.09232E-15  1.81850E+02  8.08487E-09  3.7E-05
  4.000E-03  1.21847E-09  5.09230E-15  1.81849E+02  8.62384E-09  3.7E-05
  4.250E-03  1.37554E-09  5.09227E-15  1.81848E+02  9.16281E-09  3.7E-05
  4.500E-03  1.54213E-09  5.09224E-15  1.81847E+02  9.70177E-09  3.7E-05
  4.750E-03  1.71823E-09  5.09222E-15  1.81846E+02  1.02407E-08  3.7E-05
  5.000E-03  1.90386E-09  5.09219E-15  1.81845E+02  1.07797E-08  3.7E-05
  5.250E-03  2.09900E-09  5.09215E-15  1.81844E+02  1.13186E-08  3.7E-05
  5.500E-03  2.30367E-09  5.09212E-15  1.81843E+02  1.18576E-08  3.7E-05
  5.750E-03  2.51785E-09  5.09208E-15  1.81842E+02  1.23965E-08  3.7E-05
  6.000E-03  2.74156E-09  5.09205E-15  1.81840E+02  1.29354E-08  3.7E-05
  6.250E-03  2.97478E-09  5.09201E-15  1.81839E+02  1.34744E-08  3.7E-05
  6.500E-03  3.21752E-09  5.09197E-15  1.81838E+02  1.40133E-08  3.7E-05
  6.750E-03  3.46978E-09  5.09193E-15  1.81836E+02  1.45522E-08  3.7E-05
  7.000E-03  3.73156E-09  5.09189E-15  1.81835E+02  1.50911E-08  3.7E-05
  7.250E-03  4.00286E-09  5.09184E-15  1.81833E+02  1.56300E-08  3.7E-05
  7.500E-03  4.28368E-09  5.09180E-15  1.81831E+02  1.61689E-08  3.7E-05
  7.750E-03  4.57402E-09  5.09175E-15  1.81830E+02  1.67077E-08  3.7E-05
  8.000E-03  4.87388E-09  5.09170E-15  1.81828E+02  1.72466E-08  3.7E-05
  8.250E-03  5.18326E-09  5.09165E-15  1.81826E+02  1.77855E-08  3.7E-05
  8.500E-03  5.50215E-09  5.09160E-15  1.81824E+02  1.83243E-08  3.7E-05
  8.750E-03  5.83057E-09  5.09154E-15  1.81822E+02  1.88632E-08  3.7E-05
  9.000E-03  6.16850E-09  5.09149E-15  1.81820E+02  1.94020E-08  3.7E-05
  9.250E-03  6.51596E-09  5.09143E-15  1.81818E+02  1.99408E-08  3.7E-05
  9.500E-03  6.87293E-09  5.09137E-15  1.81816E+02  2.04797E-08  3.7E-05
  9.750E-03  7.23942E-09  5.09131E-15  1.81814E+02  2.10185E-08  3.7E-05
  1.000E-02  7.61544E-09  5.09125E-15  1.81812E+02  2.15573E-08  3.7E-05
  1.250E-02  1.18991E-08  5.09056E-15  1.81787E+02  2.69446E-08  3.7E-05
  1.500E-02  1.71347E-08  5.08970E-15  1.81757E+02  3.23307E-08  3.7E-05
  1.750E-02  2.33223E-08  5.08870E-15  1.81721E+02  3.77151E-08  3.7E-05
  2.000E-02  3.04617E-08  5.08753E-15  1.81679E+02  4.30978E-08  3.6E-05
  2.250E-02  3.85531E-08  5.08622E-15  1.81632E+02  4.84784E-08  3.6E-05
  2.500E-02  4.75965E-08  5.08475E-15  1.81580E+02  5.38566E-08  3.6E-05
  2.750E-02  5.75917E-08  5.08313E-15  1.81522E+02  5.92323E-08  3.6E-05
  3.000E-02  6.85389E-08  5.08136E-15  1.81458E+02  6.46051E-08  3.6E-05
  3.250E-02  8.04380E-08  5.07943E-15  1.81390E+02  6.99748E-08  3.5E-05
  3.500E-02  9.32891E-08  5.07735E-15  1.81316E+02  7.53412E-08  3.5E-05
  3.750E-02  1.07092E-07  5.07513E-15  1.81236E+02  8.07041E-08  3.5E-05
  4.000E-02  1.21847E-07  5.07275E-15  1.81151E+02  8.60631E-08  3.4E-05
  4.250E-02  1.37554E-07  5.07023E-15  1.81061E+02  9.14180E-08  3.4E-05
  4.500E-02  1.54213E-07  5.06755E-15  1.80966E+02  9.67687E-08  3.4E-05
  4.750E-02  1.71823E-07  5.06473E-15  1.80865E+02  1.02115E-07  3.3E-05
  5.000E-02  1.90386E-07  5.06177E-15  1.80759E+02  1.07456E-07  3.3E-05
  5.250E-02  2.09900E-07  5.05865E-15  1.80648E+02  1.12793E-07  3.3E-05
  5.500E-02  2.30367E-07  5.05540E-15  1.80532E+02  1.18124E-07  3.2E-05
  5.750E-02  2.51785E-07  5.05200E-15  1.80410E+02  1.23450E-07  3.2E-05
  6.000E-02  2.74156E-07  5.04846E-15  1.80284E+02  1.28770E-07  3.1E-05
  6.250E-02  2.97478E-07  5.04477E-15  1.80152E+02  1.34084E-07  3.1E-05
  6.500E-02  3.21752E-07  5.04095E-15  1.80016E+02  1.39392E-07  3.0E-05
  6.750E-02  3.46978E-07  5.03699E-15  1.79874E+02  1.44694E-07  3.0E-05
  7.000E-02  3.73156E-07  5.03289E-15  1.79728E+02  1.49990E-07  2.9E-05
  7.250E-02  4.00286E-07  5.02865E-15  1.79576E+02  1.55279E-07  2.9E-05
  7.500E-02  4.28368E-07  5.02428E-15  1.79420E+02  1.60561E-07  2.8E-05
  7.750E-02  4.57402E-07  5.01978E-15  1.79260E+02  1.65837E-07  2.8E-05
  8.000E-02  4.87388E-07  5.01514E-15  1.79094E+02  1.71105E-07  2.7E-05
  8.250E-02  5.18325E-07  5.01038E-15  1.78924E+02  1.76366E-07  2.7E-05
  8.500E-02  5.50215E-07  5.00548E-15  1.78749E+02  1.81619E-07  2.6E-05
  8.750E-02  5.83057E-07  5.00046E-15  1.78570E+02  1.86865E-07  2.5E-05
  9.000E-02  6.16850E-07  4.99531E-15  1.78386E+02  1.92103E-07  2.5E-05
  9.250E-02  6.51596E-07  4.99004E-15  1.78197E+02  1.97333E-07  2.4E-05
  9.500E-02  6.87293E-07  4.98464E-15  1.78005E+02  2.02555E-07  2.3E-05
  9.750E-02  7.23942E-07  4.97912E-15  1.77808E+02  2.07769E-07  2.3E-05
  1.000E-01  7.61543E-07  4.97349E-15  1.77606E+02  2.12975E-07  2.2E-05
  1.250E-01  1.18991E-06  4.91093E-15  1.75372E+02  2.64557E-07  1.5E-05
  1.500E-01  1.71347E-06  4.83844E-15  1.72784E+02  3.15244E-07  7.7E-06
  1.750E-01  2.33223E-06  4.75802E-15  1.69912E+02  3.65063E-07  5.7E-07
  2.000E-01  3.04617E-06  4.67175E-15  1.66831E+02  4.14137E-07  5.8E-06
  2.250E-01  3.85531E-06  4.58168E-15  1.63615E+02  4.62693E-07  1.1E-05
  2.500E-01  4.75964E-06  4.48971E-15  1.60330E+02  5.11048E-07  1.4E-05
  2.750E-01  5.75916E-06  4.39756E-15  1.57040E+02  5.59601E-07  1.6E-05
  3.000E-01  6.85388E-06  4.30669E-15  1.53795E+02  6.08798E-07  1.6E-05
  3.250E-01  8.04378E-06  4.21829E-15  1.50638E+02  6.59102E-07  1.4E-05
  3.500E-01  9.32888E-06  4.13324E-15  1.47601E+02  7.10951E-07  1.0E-05
  3.750E-01  1.07092E-05  4.05211E-15  1.44703E+02  7.64719E-07  6.1E-06
  4.000E-01  1.21846E-05  3.97521E-15  1.41957E+02  8.20679E-07  1.3E-06
  4.250E-01  1.37553E-05  3.90263E-15  1.39365E+02  8.78973E-07  3.5E-06
  4.500E-01  1.54212E-05  3.83422E-15  1.36923E+02  9.39602E-07  7.7E-06
  4.750E-01  1.71822E-05  3.76972E-15  1.34619E+02  1.00243E-06  1.1E-05
  5.000E-01  1.90385E-05  3.70872E-15  1.32441E+02  1.06718E-06  1.3E-05
  5.250E-01  2.09899E-05  3.65080E-15  1.30372E+02  1.13350E-06  1.3E-05
  5.500E-01  2.30365E-05  3.59549E-15  1.28397E+02  1.20096E-06  1.2E-05
  5.750E-01  2.51783E-05  3.54235E-15  1.26499E+02  1.26912E-06  9.5E-06
  6.000E-01  2.74153E-05  3.49099E-15  1.24665E+02  1.33757E-06  6.1E-06
  6.250E-01  2.97475E-05  3.44110E-15  1.22884E+02  1.40594E-06  2.0E-06
  6.500E-01  3.21749E-05  3.39243E-15  1.21146E+02  1.47399E-06  2.1E-06
  6.750E-01  3.46974E-05  3.34482E-15  1.19446E+02  1.54156E-06  5.9E-06
  7.000E-01  3.73152E-05  3.29819E-15  1.17781E+02  1.60864E-06  9.0E-06
  7.250E-01  4.00281E-05  3.25253E-15  1.16150E+02  1.67533E-06  1.1E-05
  7.500E-01  4.28362E-05  3.20786E-15  1.14555E+02  1.74183E-06  1.2E-05
  7.750E-01  4.57395E-05  3.16425E-15  1.12997E+02  1.80843E-06  1.1E-05
  8.000E-01  4.87380E-05  3.12177E-15  1.11480E+02  1.87546E-06  9.2E-06
  8.250E-01  5.18317E-05  3.08049E-15  1.10006E+02  1.94327E-06  6.3E-06
  8.500E-01  5.50205E-05  3.04047E-15  1.08577E+02  2.01217E-06  2.8E-06
  8.750E-01  5.83045E-05  3.00174E-15  1.07194E+02  2.08242E-06  1.0E-06
  9.000E-01  6.16838E-05  2.96430E-15  1.05857E+02  2.15419E-06  4.6E-06
  9.250E-01  6.51582E-05  2.92811E-15  1.04565E+02  2.22755E-06  7.7E-06
  9.500E-01  6.87277E-05  2.89311E-15  1.03315E+02  2.30246E-06  9.8E-06
  9.750E-01  7.23925E-05  2.85921E-15  1.02104E+02  2.37877E-06  1.1E-05
  1.000E+00  7.61524E-05  2.82629E-15  1.00929E+02  2.45626E-06  1.1E-05
  1.100E+00  9.21439E-05  2.70220E-15  9.64971E+01  2.77221E-06  1.0E-07
  1.200E+00  1.09658E-04  2.58624E-15  9.23564E+01  3.08753E-06  1.0E-05
  1.300E+00  1.28695E-04  2.47708E-15  8.84581E+01  3.40452E-06  4.1E-06
  1.400E+00  1.49255E-04  2.37578E-15  8.48407E+01  3.73776E-06  8.0E-06
  1.500E+00  1.71338E-04  2.28181E-15  8.14851E+01  4.09181E-06  7.3E-06
  1.600E+00  1.94942E-04  2.19271E-15  7.83032E+01  4.45549E-06  4.8E-06
  1.700E+00  2.20070E-04  2.10675E-15  7.52334E+01  4.82047E-06  9.1E-06
  1.800E+00  2.46720E-04  2.02415E-15  7.22836E+01  5.19455E-06  8.7E-07
  1.900E+00  2.74892E-04  1.94553E-15  6.94762E+01  5.58986E-06  9.3E-06
  2.000E+00  3.04586E-04  1.87038E-15  6.67924E+01  6.00490E-06  3.1E-06
  2.100E+00  3.35803E-04  1.79754E-15  6.41915E+01  6.42822E-06  8.0E-06
  2.200E+00  3.68542E-04  1.72666E-15  6.16601E+01  6.85740E-06  6.4E-06
  2.300E+00  4.02802E-04  1.65820E-15  5.92154E+01  7.30361E-06  5.2E-06
  2.400E+00  4.38585E-04  1.59244E-15  5.68669E+01  7.77495E-06  8.6E-06
  2.500E+00  4.75889E-04  1.52893E-15  5.45989E+01  8.26481E-06  1.6E-06
  2.600E+00  5.14715E-04  1.46717E-15  5.23936E+01  8.76337E-06  9.3E-06
  2.700E+00  5.55063E-04  1.40725E-15  5.02540E+01  9.27404E-06  2.3E-06
  2.800E+00  5.96931E-04  1.34954E-15  4.81929E+01  9.80905E-06  8.3E-06
  2.900E+00  6.40321E-04  1.29404E-15  4.62111E+01  1.03711E-05  5.8E-06
  3.000E+00  6.85233E-04  1.24041E-15  4.42959E+01  1.09501E-05  5.9E-06
  3.100E+00  7.31665E-04  1.18846E-15  4.24406E+01  1.15398E-05  8.4E-06
  3.200E+00  7.79618E-04  1.13836E-15  4.06516E+01  1.21490E-05  2.4E-06
  3.300E+00  8.29092E-04  1.09030E-15  3.89355E+01  1.27882E-05  9.5E-06
  3.400E+00  8.80086E-04  1.04416E-15  3.72878E+01  1.34543E-05  1.6E-06
  3.500E+00  9.32601E-04  9.99697E-16  3.56998E+01  1.41356E-05  9.0E-06
  3.600E+00  9.86636E-04  9.56857E-16  3.41700E+01  1.48315E-05  5.4E-06
  3.700E+00  1.04219E-03  9.15785E-16  3.27033E+01  1.55544E-05  6.8E-06
  3.800E+00  1.09927E-03  8.76515E-16  3.13009E+01  1.63107E-05  8.4E-06
  3.900E+00  1.15786E-03  8.38879E-16  2.99569E+01  1.70916E-05  3.3E-06
  4.000E+00  1.21797E-03  8.02721E-16  2.86657E+01  1.78869E-05  1.0E-05
  4.100E+00  1.27961E-03  7.68060E-16  2.74279E+01  1.87026E-05  8.8E-07
  4.200E+00  1.34276E-03  7.34970E-16  2.62462E+01  1.95518E-05  9.8E-06
  4.300E+00  1.40743E-03  7.03392E-16  2.51186E+01  2.04348E-05  5.1E-06
  4.400E+00  1.47362E-03  6.73170E-16  2.40393E+01  2.13387E-05  7.8E-06
  4.500E+00  1.54133E-03  6.44221E-16  2.30055E+01  2.22582E-05  8.5E-06
  4.600E+00  1.61056E-03  6.16575E-16  2.20183E+01  2.32048E-05  4.4E-06
  4.700E+00  1.68131E-03  5.90244E-16  2.10780E+01  2.41896E-05  1.1E-05
  4.800E+00  1.75357E-03  5.65132E-16  2.01812E+01  2.52055E-05  1.0E-07
  4.900E+00  1.82735E-03  5.41122E-16  1.93238E+01  2.62385E-05  1.1E-05
  5.000E+00  1.90265E-03  5.18177E-16  1.85044E+01  2.72903E-05  4.7E-06
  5.100E+00  1.97947E-03  4.96319E-16  1.77239E+01  2.83766E-05  9.0E-06
  5.200E+00  2.05780E-03  4.75518E-16  1.69811E+01  2.95023E-05  8.6E-06
  5.300E+00  2.13765E-03  4.55676E-16  1.62725E+01  3.06536E-05  5.6E-06
  5.400E+00  2.21902E-03  4.36714E-16  1.55954E+01  3.18198E-05  1.1E-05
  5.500E+00  2.30190E-03  4.18627E-16  1.49494E+01  3.30106E-05  9.0E-07
  5.600E+00  2.38630E-03  4.01416E-16  1.43348E+01  3.42417E-05  1.2E-05
  5.700E+00  2.47222E-03  3.85030E-16  1.37497E+01  3.55095E-05  4.2E-06
  5.800E+00  2.55965E-03  3.69387E-16  1.31911E+01  3.67963E-05  1.0E-05
  5.900E+00  2.64859E-03  3.54447E-16  1.26575E+01  3.80984E-05  8.7E-06
  6.000E+00  2.73905E-03  3.40209E-16  1.21491E+01  3.94325E-05  6.9E-06
  6.100E+00  2.83103E-03  3.26662E-16  1.16653E+01  4.08096E-05  1.2E-05
  6.200E+00  2.92452E-03  3.13747E-16  1.12041E+01  4.22169E-05  2.0E-06
  6.300E+00  3.01952E-03  3.01407E-16  1.07634E+01  4.36374E-05  1.3E-05
  6.400E+00  3.11604E-03  2.89625E-16  1.03427E+01  4.50771E-05  3.5E-06
  6.500E+00  3.21407E-03  2.78401E-16  9.94188E+00  4.65559E-05  1.2E-05
  6.600E+00  3.31362E-03  2.67710E-16  9.56010E+00  4.80760E-05  8.6E-06
  6.700E+00  3.41468E-03  2.57501E-16  9.19552E+00  4.96174E-05  8.4E-06
  6.800E+00  3.51725E-03  2.47739E-16  8.84690E+00  5.11690E-05  1.2E-05
  6.900E+00  3.62133E-03  2.38419E-16  8.51409E+00  5.27466E-05  3.3E-06
  7.000E+00  3.72692E-03  2.29537E-16  8.19690E+00  5.43683E-05  1.4E-05
  7.100E+00  3.83403E-03  2.21061E-16  7.89425E+00  5.60248E-05  2.7E-06
  7.200E+00  3.94265E-03  2.12954E-16  7.60472E+00  5.76931E-05  1.3E-05
  7.300E+00  4.05278E-03  2.05197E-16  7.32771E+00  5.93729E-05  8.4E-06
  7.400E+00  4.16442E-03  1.97790E-16  7.06321E+00  6.10872E-05  1.0E-05
  7.500E+00  4.27757E-03  1.90722E-16  6.81082E+00  6.28461E-05  1.3E-05
  7.600E+00  4.39223E-03  1.83964E-16  6.56947E+00  6.46293E-05  4.7E-06
  7.700E+00  4.50840E-03  1.77489E-16  6.33825E+00  6.64173E-05  1.5E-05
  7.800E+00  4.62608E-03  1.71291E-16  6.11691E+00  6.82225E-05  1.6E-06
  7.900E+00  4.74527E-03  1.65369E-16  5.90544E+00  7.00699E-05  1.5E-05
  8.000E+00  4.86597E-03  1.59708E-16  5.70329E+00  7.19566E-05  8.0E-06
  8.100E+00  4.98817E-03  1.54283E-16  5.50955E+00  7.38553E-05  1.2E-05
  8.200E+00  5.11188E-03  1.49079E-16  5.32372E+00  7.57565E-05  1.3E-05
  8.300E+00  5.23711E-03  1.44096E-16  5.14575E+00  7.76841E-05  6.4E-06
  8.400E+00  5.36383E-03  1.39329E-16  4.97552E+00  7.96577E-05  1.6E-05
  8.500E+00  5.49207E-03  1.34762E-16  4.81243E+00  8.16600E-05  4.0E-07
  8.600E+00  5.62181E-03  1.30376E-16  4.65583E+00  8.36630E-05  1.6E-05
  8.700E+00  5.75306E-03  1.26166E-16  4.50547E+00  8.56722E-05  7.4E-06
  8.800E+00  5.88581E-03  1.22132E-16  4.36140E+00  8.77181E-05  1.4E-05
  8.900E+00  6.02007E-03  1.18266E-16  4.22335E+00  8.98075E-05  1.3E-05
  9.000E+00  6.15583E-03  1.14554E-16  4.09078E+00  9.19113E-05  8.1E-06
  9.100E+00  6.29310E-03  1.10983E-16  3.96329E+00  9.40092E-05  1.7E-05
  9.200E+00  6.43187E-03  1.07553E-16  3.84080E+00  9.61223E-05  1.0E-06
  9.300E+00  6.57214E-03  1.04263E-16  3.72331E+00  9.82797E-05  1.8E-05
  9.400E+00  6.71392E-03  1.01105E-16  3.61051E+00  1.00472E-04  6.5E-06
  9.500E+00  6.85720E-03  9.80645E-17  3.50195E+00  1.02663E-04  1.5E-05
  9.600E+00  7.00198E-03  9.51373E-17  3.39742E+00  1.04848E-04  1.3E-05
  9.700E+00  7.14827E-03  9.23235E-17  3.29693E+00  1.07061E-04  1.0E-05
  9.800E+00  7.29605E-03  8.96206E-17  3.20041E+00  1.09321E-04  1.8E-05
  9.900E+00  7.44534E-03  8.70196E-17  3.10753E+00  1.11600E-04  2.6E-06
  1.000E+01  7.59612E-03  8.45119E-17  3.01797E+00  1.13866E-04  1.9E-05
  1.025E+01  7.97965E-03  7.86414E-17  2.80833E+00  1.19613E-04  1.9E-05
  1.050E+01  8.37255E-03  7.32926E-17  2.61733E+00  1.25472E-04  1.8E-05
  1.075E+01  8.77480E-03  6.84087E-17  2.44292E+00  1.31423E-04  1.6E-05
  1.100E+01  9.18641E-03  6.39399E-17  2.28334E+00  1.37432E-04  1.2E-05
  1.125E+01  9.60736E-03  5.98486E-17  2.13723E+00  1.43563E-04  7.9E-06
  1.150E+01  1.00376E-02  5.60903E-17  2.00302E+00  1.49699E-04  2.7E-06
  1.175E+01  1.04773E-02  5.26400E-17  1.87981E+00  1.55980E-04  2.8E-06
  1.200E+01  1.09262E-02  4.94594E-17  1.76623E+00  1.62224E-04  8.4E-06
  1.225E+01  1.13844E-02  4.65309E-17  1.66165E+00  1.68619E-04  1.4E-05
  1.250E+01  1.18520E-02  4.38232E-17  1.56496E+00  1.74957E-04  1.8E-05
  1.275E+01  1.23288E-02  4.13223E-17  1.47565E+00  1.81428E-04  2.2E-05
  1.300E+01  1.28150E-02  3.90042E-17  1.39287E+00  1.87850E-04  2.4E-05
  1.325E+01  1.33104E-02  3.68561E-17  1.31616E+00  1.94358E-04  2.5E-05
  1.350E+01  1.38150E-02  3.48608E-17  1.24490E+00  2.00848E-04  2.4E-05
  1.375E+01  1.43290E-02  3.30058E-17  1.17866E+00  2.07359E-04  2.1E-05
  1.400E+01  1.48521E-02  3.12794E-17  1.11701E+00  2.13898E-04  1.7E-05
  1.425E+01  1.53845E-02  2.96696E-17  1.05952E+00  2.20384E-04  1.2E-05
  1.450E+01  1.59262E-02  2.81684E-17  1.00591E+00  2.26944E-04  6.0E-06
