 #
 # Subroutine ELSEPA. Elastic scattering of electrons and positrons
 #                    by neutral atoms and positive ions
 #
 # Projectile: electron
 # Kinetic energy = 1.90000E+04 eV = 6.98237E+02 a.u.
 #
 # Element: Si,  Z =  14,  atomic weight = 2.80855E+01 g/mol
 #
 # Nuclear model: Fermi distribution
 #                Average radius = 3.25245E-13 cm
 #                Skin thickness = 5.46000E-14 cm
 #
 # Number of electrons = 14
 #
 # Electron density: analytical DHFS model
 #                   A1 =  5.15971D-01 ,   ALPHA1 = 5.84918D+00
 #                   A2 =  4.84029D-01 ,   ALPHA2 = 1.17314D+00
 #                   A3 =  0.00000D+00 ,   ALPHA3 = 1.00000D+00
 #                   Volume integral = 1.40000E+01
 #
 # Furness-McCarthy exchange potential
 #
 # Total elastic cross section = 1.12719E-17 cm**2 = 4.02525E-01 a0**2
 # 1st transport cross section = 9.79320E-20 cm**2 = 3.49722E-03 a0**2
 # 2nd transport cross section = 2.37992E-19 cm**2 = 8.49885E-03 a0**2
 #
 #
 # Differential cross section:                       MU=(1-COS(THETA))/2
 #
 #  THETA        MU          DCS          DCS        Sherman      error
 #  (deg)                 (cm**2/sr)   (a0**2/sr)    function
 #----------------------------------------------------------------------
  0.000E+00  0.00000E+00  3.07746E-15  1.09898E+02  0.00000E+00  1.0E-07
  1.000E-04  7.61557E-13  3.07746E-15  1.09898E+02  1.60485E-10  1.0E-07
  1.250E-04  1.18994E-12  3.07746E-15  1.09898E+02  2.00606E-10  1.0E-07
  1.500E-04  1.71346E-12  3.07746E-15  1.09898E+02  2.40727E-10  1.0E-07
  1.750E-04  2.33225E-12  3.07746E-15  1.09898E+02  2.80848E-10  1.0E-07
  2.000E-04  3.04617E-12  3.07746E-15  1.09898E+02  3.20969E-10  1.0E-07
  2.250E-04  3.85530E-12  3.07746E-15  1.09898E+02  3.61090E-10  1.0E-07
  2.500E-04  4.75964E-12  3.07746E-15  1.09898E+02  4.01211E-10  1.0E-07
  2.750E-04  5.75917E-12  3.07746E-15  1.09898E+02  4.41332E-10  1.0E-07
  3.000E-04  6.85391E-12  3.07746E-15  1.09898E+02  4.81454E-10  1.0E-07
  3.250E-04  8.04379E-12  3.07746E-15  1.09898E+02  5.21575E-10  1.0E-07
  3.500E-04  9.32893E-12  3.07746E-15  1.09898E+02  5.61696E-10  1.0E-07
  3.750E-04  1.07092E-11  3.07746E-15  1.09898E+02  6.01817E-10  1.0E-07
  4.000E-04  1.21847E-11  3.07746E-15  1.09898E+02  6.41938E-10  1.0E-07
  4.250E-04  1.37554E-11  3.07746E-15  1.09898E+02  6.82059E-10  1.0E-07
  4.500E-04  1.54213E-11  3.07746E-15  1.09898E+02  7.22180E-10  1.0E-07
  4.750E-04  1.71823E-11  3.07746E-15  1.09898E+02  7.62301E-10  1.0E-07
  5.000E-04  1.90386E-11  3.07746E-15  1.09898E+02  8.02423E-10  1.0E-07
  5.250E-04  2.09900E-11  3.07746E-15  1.09898E+02  8.42544E-10  1.0E-07
  5.500E-04  2.30367E-11  3.07746E-15  1.09898E+02  8.82665E-10  1.0E-07
  5.750E-04  2.51785E-11  3.07746E-15  1.09898E+02  9.22786E-10  1.0E-07
  6.000E-04  2.74156E-11  3.07746E-15  1.09898E+02  9.62907E-10  1.0E-07
  6.250E-04  2.97478E-11  3.07746E-15  1.09898E+02  1.00303E-09  1.0E-07
  6.500E-04  3.21752E-11  3.07746E-15  1.09898E+02  1.04315E-09  1.0E-07
  6.750E-04  3.46979E-11  3.07746E-15  1.09898E+02  1.08327E-09  1.0E-07
  7.000E-04  3.73157E-11  3.07746E-15  1.09898E+02  1.12339E-09  1.0E-07
  7.250E-04  4.00286E-11  3.07746E-15  1.09898E+02  1.16351E-09  1.0E-07
  7.500E-04  4.28368E-11  3.07746E-15  1.09898E+02  1.20363E-09  1.0E-07
  7.750E-04  4.57402E-11  3.07746E-15  1.09898E+02  1.24376E-09  1.0E-07
  8.000E-04  4.87388E-11  3.07746E-15  1.09898E+02  1.28388E-09  1.0E-07
  8.250E-04  5.18325E-11  3.07746E-15  1.09898E+02  1.32400E-09  1.0E-07
  8.500E-04  5.50215E-11  3.07746E-15  1.09898E+02  1.36412E-09  1.0E-07
  8.750E-04  5.83057E-11  3.07746E-15  1.09898E+02  1.40424E-09  1.0E-07
  9.000E-04  6.16850E-11  3.07746E-15  1.09898E+02  1.44436E-09  1.0E-07
  9.250E-04  6.51595E-11  3.07746E-15  1.09898E+02  1.48448E-09  1.0E-07
  9.500E-04  6.87293E-11  3.07746E-15  1.09898E+02  1.52460E-09  1.0E-07
  9.750E-04  7.23943E-11  3.07746E-15  1.09898E+02  1.56472E-09  1.0E-07
  1.000E-03  7.61544E-11  3.07746E-15  1.09898E+02  1.60485E-09  1.0E-07
  1.250E-03  1.18991E-10  3.07746E-15  1.09898E+02  2.00606E-09  1.0E-07
  1.500E-03  1.71347E-10  3.07746E-15  1.09898E+02  2.40727E-09  1.0E-07
  1.750E-03  2.33223E-10  3.07746E-15  1.09898E+02  2.80848E-09  1.0E-07
  2.000E-03  3.04617E-10  3.07746E-15  1.09898E+02  3.20969E-09  1.0E-07
  2.250E-03  3.85531E-10  3.07745E-15  1.09898E+02  3.61091E-09  1.0E-07
  2.500E-03  4.75965E-10  3.07745E-15  1.09898E+02  4.01212E-09  1.0E-07
  2.750E-03  5.75917E-10  3.07745E-15  1.09898E+02  4.41333E-09  1.0E-07
  3.000E-03  6.85389E-10  3.07745E-15  1.09898E+02  4.81455E-09  1.0E-07
  3.250E-03  8.04380E-10  3.07744E-15  1.09898E+02  5.21576E-09  1.0E-07
  3.500E-03  9.32891E-10  3.07744E-15  1.09897E+02  5.61698E-09  1.0E-07
  3.750E-03  1.07092E-09  3.07744E-15  1.09897E+02  6.01819E-09  1.0E-07
  4.000E-03  1.21847E-09  3.07743E-15  1.09897E+02  6.41941E-09  1.0E-07
  4.250E-03  1.37554E-09  3.07743E-15  1.09897E+02  6.82062E-09  1.0E-07
  4.500E-03  1.54213E-09  3.07743E-15  1.09897E+02  7.22184E-09  1.0E-07
  4.750E-03  1.71823E-09  3.07742E-15  1.09897E+02  7.62306E-09  1.0E-07
  5.000E-03  1.90386E-09  3.07742E-15  1.09897E+02  8.02428E-09  1.0E-07
  5.250E-03  2.09900E-09  3.07741E-15  1.09896E+02  8.42550E-09  1.0E-07
  5.500E-03  2.30367E-09  3.07741E-15  1.09896E+02  8.82672E-09  1.0E-07
  5.750E-03  2.51785E-09  3.07740E-15  1.09896E+02  9.22794E-09  1.0E-07
  6.000E-03  2.74156E-09  3.07740E-15  1.09896E+02  9.62916E-09  1.0E-07
  6.250E-03  2.97478E-09  3.07739E-15  1.09896E+02  1.00304E-08  1.0E-07
  6.500E-03  3.21752E-09  3.07738E-15  1.09895E+02  1.04316E-08  1.0E-07
  6.750E-03  3.46978E-09  3.07738E-15  1.09895E+02  1.08328E-08  1.0E-07
  7.000E-03  3.73156E-09  3.07737E-15  1.09895E+02  1.12341E-08  1.0E-07
  7.250E-03  4.00286E-09  3.07737E-15  1.09895E+02  1.16353E-08  1.0E-07
  7.500E-03  4.28368E-09  3.07736E-15  1.09894E+02  1.20365E-08  1.0E-07
  7.750E-03  4.57402E-09  3.07735E-15  1.09894E+02  1.24377E-08  1.0E-07
  8.000E-03  4.87388E-09  3.07734E-15  1.09894E+02  1.28390E-08  1.0E-07
  8.250E-03  5.18326E-09  3.07734E-15  1.09894E+02  1.32402E-08  1.0E-07
  8.500E-03  5.50215E-09  3.07733E-15  1.09893E+02  1.36414E-08  1.0E-07
  8.750E-03  5.83057E-09  3.07732E-15  1.09893E+02  1.40427E-08  1.0E-07
  9.000E-03  6.16850E-09  3.07731E-15  1.09893E+02  1.44439E-08  1.0E-07
  9.250E-03  6.51596E-09  3.07730E-15  1.09892E+02  1.48451E-08  1.0E-07
  9.500E-03  6.87293E-09  3.07729E-15  1.09892E+02  1.52464E-08  1.0E-07
  9.750E-03  7.23942E-09  3.07729E-15  1.09892E+02  1.56476E-08  1.0E-07
  1.000E-02  7.61544E-09  3.07728E-15  1.09892E+02  1.60489E-08  1.0E-07
  1.250E-02  1.18991E-08  3.07717E-15  1.09888E+02  2.00614E-08  1.0E-07
  1.500E-02  1.71347E-08  3.07704E-15  1.09883E+02  2.40741E-08  1.0E-07
  1.750E-02  2.33223E-08  3.07689E-15  1.09878E+02  2.80870E-08  1.0E-07
  2.000E-02  3.04617E-08  3.07671E-15  1.09871E+02  3.21002E-08  1.0E-07
  2.250E-02  3.85531E-08  3.07651E-15  1.09864E+02  3.61137E-08  1.0E-07
  2.500E-02  4.75965E-08  3.07629E-15  1.09856E+02  4.01276E-08  1.0E-07
  2.750E-02  5.75917E-08  3.07604E-15  1.09847E+02  4.41419E-08  1.0E-07
  3.000E-02  6.85389E-08  3.07577E-15  1.09838E+02  4.81565E-08  1.0E-07
  3.250E-02  8.04380E-08  3.07548E-15  1.09827E+02  5.21717E-08  1.0E-07
  3.500E-02  9.32891E-08  3.07516E-15  1.09816E+02  5.61873E-08  1.0E-07
  3.750E-02  1.07092E-07  3.07482E-15  1.09804E+02  6.02035E-08  1.0E-07
  4.000E-02  1.21847E-07  3.07445E-15  1.09791E+02  6.42203E-08  1.0E-07
  4.250E-02  1.37554E-07  3.07407E-15  1.09777E+02  6.82377E-08  1.0E-07
  4.500E-02  1.54213E-07  3.07366E-15  1.09762E+02  7.22558E-08  1.0E-07
  4.750E-02  1.71823E-07  3.07322E-15  1.09747E+02  7.62745E-08  1.0E-07
  5.000E-02  1.90386E-07  3.07276E-15  1.09730E+02  8.02940E-08  1.0E-07
  5.250E-02  2.09900E-07  3.07228E-15  1.09713E+02  8.43143E-08  1.0E-07
  5.500E-02  2.30367E-07  3.07178E-15  1.09695E+02  8.83354E-08  1.0E-07
  5.750E-02  2.51785E-07  3.07125E-15  1.09676E+02  9.23574E-08  1.0E-07
  6.000E-02  2.74156E-07  3.07070E-15  1.09657E+02  9.63802E-08  1.0E-07
  6.250E-02  2.97478E-07  3.07012E-15  1.09636E+02  1.00404E-07  1.0E-07
  6.500E-02  3.21752E-07  3.06953E-15  1.09615E+02  1.04429E-07  1.0E-07
  6.750E-02  3.46978E-07  3.06891E-15  1.09593E+02  1.08454E-07  1.0E-07
  7.000E-02  3.73156E-07  3.06826E-15  1.09570E+02  1.12481E-07  1.0E-07
  7.250E-02  4.00286E-07  3.06759E-15  1.09546E+02  1.16509E-07  1.0E-07
  7.500E-02  4.28368E-07  3.06690E-15  1.09521E+02  1.20538E-07  1.0E-07
  7.750E-02  4.57402E-07  3.06619E-15  1.09496E+02  1.24568E-07  1.0E-07
  8.000E-02  4.87388E-07  3.06545E-15  1.09469E+02  1.28600E-07  1.0E-07
  8.250E-02  5.18325E-07  3.06469E-15  1.09442E+02  1.32632E-07  1.0E-07
  8.500E-02  5.50215E-07  3.06391E-15  1.09414E+02  1.36666E-07  1.0E-07
  8.750E-02  5.83057E-07  3.06310E-15  1.09385E+02  1.40701E-07  1.0E-07
  9.000E-02  6.16850E-07  3.06227E-15  1.09356E+02  1.44738E-07  1.0E-07
  9.250E-02  6.51596E-07  3.06142E-15  1.09325E+02  1.48776E-07  1.0E-07
  9.500E-02  6.87293E-07  3.06055E-15  1.09294E+02  1.52815E-07  1.0E-07
  9.750E-02  7.23942E-07  3.05965E-15  1.09262E+02  1.56856E-07  1.0E-07
  1.000E-01  7.61543E-07  3.05873E-15  1.09229E+02  1.60899E-07  1.0E-07
  1.250E-01  1.18991E-06  3.04827E-15  1.08856E+02  2.01414E-07  1.0E-07
  1.500E-01  1.71347E-06  3.03555E-15  1.08402E+02  2.42124E-07  1.0E-07
  1.750E-01  2.33223E-06  3.02063E-15  1.07869E+02  2.83065E-07  1.0E-07
  2.000E-01  3.04617E-06  3.00356E-15  1.07259E+02  3.24277E-07  1.0E-07
  2.250E-01  3.85531E-06  2.98438E-15  1.06574E+02  3.65797E-07  1.0E-07
  2.500E-01  4.75964E-06  2.96317E-15  1.05817E+02  4.07664E-07  1.0E-07
  2.750E-01  5.75916E-06  2.94000E-15  1.04989E+02  4.49916E-07  1.0E-07
  3.000E-01  6.85388E-06  2.91493E-15  1.04094E+02  4.92588E-07  1.0E-07
  3.250E-01  8.04378E-06  2.88806E-15  1.03134E+02  5.35720E-07  1.0E-07
  3.500E-01  9.32888E-06  2.85946E-15  1.02113E+02  5.79347E-07  1.0E-07
  3.750E-01  1.07092E-05  2.82922E-15  1.01033E+02  6.23506E-07  1.0E-07
  4.000E-01  1.21846E-05  2.79743E-15  9.98982E+01  6.68233E-07  1.0E-07
  4.250E-01  1.37553E-05  2.76420E-15  9.87113E+01  7.13565E-07  1.0E-07
  4.500E-01  1.54212E-05  2.72960E-15  9.74759E+01  7.59535E-07  1.0E-07
  4.750E-01  1.71822E-05  2.69375E-15  9.61955E+01  8.06179E-07  1.0E-07
  5.000E-01  1.90385E-05  2.65673E-15  9.48736E+01  8.53531E-07  1.0E-07
  5.250E-01  2.09899E-05  2.61865E-15  9.35138E+01  9.01626E-07  1.0E-07
  5.500E-01  2.30365E-05  2.57961E-15  9.21195E+01  9.50496E-07  1.0E-07
  5.750E-01  2.51783E-05  2.53970E-15  9.06943E+01  1.00017E-06  1.0E-07
  6.000E-01  2.74153E-05  2.49902E-15  8.92415E+01  1.05069E-06  1.0E-07
  6.250E-01  2.97475E-05  2.45766E-15  8.77646E+01  1.10208E-06  1.0E-07
  6.500E-01  3.21749E-05  2.41572E-15  8.62669E+01  1.15438E-06  1.0E-07
  6.750E-01  3.46974E-05  2.37329E-15  8.47518E+01  1.20761E-06  1.0E-07
  7.000E-01  3.73152E-05  2.33046E-15  8.32222E+01  1.26180E-06  1.0E-07
  7.250E-01  4.00281E-05  2.28731E-15  8.16814E+01  1.31698E-06  1.0E-07
  7.500E-01  4.28362E-05  2.24393E-15  8.01322E+01  1.37319E-06  1.0E-07
  7.750E-01  4.57395E-05  2.20039E-15  7.85775E+01  1.43045E-06  1.0E-07
  8.000E-01  4.87380E-05  2.15678E-15  7.70200E+01  1.48878E-06  1.0E-07
  8.250E-01  5.18317E-05  2.11316E-15  7.54623E+01  1.54821E-06  1.0E-07
  8.500E-01  5.50205E-05  2.06960E-15  7.39069E+01  1.60878E-06  1.0E-07
  8.750E-01  5.83045E-05  2.02617E-15  7.23560E+01  1.67050E-06  1.0E-07
  9.000E-01  6.16838E-05  1.98294E-15  7.08119E+01  1.73339E-06  1.0E-07
  9.250E-01  6.51582E-05  1.93994E-15  6.92766E+01  1.79749E-06  1.0E-07
  9.500E-01  6.87277E-05  1.89725E-15  6.77520E+01  1.86282E-06  1.0E-07
  9.750E-01  7.23925E-05  1.85491E-15  6.62399E+01  1.92939E-06  1.0E-07
  1.000E+00  7.61524E-05  1.81296E-15  6.47420E+01  1.99723E-06  1.0E-07
  1.100E+00  9.21439E-05  1.64993E-15  5.89200E+01  2.28168E-06  1.0E-07
  1.200E+00  1.09658E-04  1.49600E-15  5.34230E+01  2.58799E-06  1.0E-07
  1.300E+00  1.28695E-04  1.35252E-15  4.82995E+01  2.91715E-06  1.0E-07
  1.400E+00  1.49255E-04  1.22021E-15  4.35744E+01  3.26996E-06  1.0E-07
  1.500E+00  1.71338E-04  1.09922E-15  3.92538E+01  3.64703E-06  1.0E-07
  1.600E+00  1.94942E-04  9.89352E-16  3.53304E+01  4.04879E-06  1.0E-07
  1.700E+00  2.20070E-04  8.90129E-16  3.17871E+01  4.47550E-06  1.0E-07
  1.800E+00  2.46720E-04  8.00900E-16  2.86007E+01  4.92724E-06  1.0E-07
  1.900E+00  2.74892E-04  7.20919E-16  2.57445E+01  5.40393E-06  1.0E-07
  2.000E+00  3.04586E-04  6.49397E-16  2.31904E+01  5.90535E-06  1.0E-07
  2.100E+00  3.35803E-04  5.85545E-16  2.09102E+01  6.43114E-06  1.0E-07
  2.200E+00  3.68542E-04  5.28600E-16  1.88767E+01  6.98082E-06  1.0E-07
  2.300E+00  4.02802E-04  4.77841E-16  1.70640E+01  7.55382E-06  1.0E-07
  2.400E+00  4.38585E-04  4.32599E-16  1.54484E+01  8.14947E-06  1.0E-07
  2.500E+00  4.75889E-04  3.92264E-16  1.40080E+01  8.76705E-06  1.0E-07
  2.600E+00  5.14715E-04  3.56283E-16  1.27231E+01  9.40573E-06  1.0E-07
  2.700E+00  5.55063E-04  3.24159E-16  1.15759E+01  1.00647E-05  1.0E-07
  2.800E+00  5.96931E-04  2.95450E-16  1.05507E+01  1.07430E-05  1.0E-07
  2.900E+00  6.40321E-04  2.69761E-16  9.63335E+00  1.14397E-05  1.0E-07
  3.000E+00  6.85233E-04  2.46746E-16  8.81145E+00  1.21539E-05  1.0E-07
  3.100E+00  7.31665E-04  2.26096E-16  8.07402E+00  1.28846E-05  1.0E-07
  3.200E+00  7.79618E-04  2.07540E-16  7.41137E+00  1.36309E-05  1.0E-07
  3.300E+00  8.29092E-04  1.90839E-16  6.81499E+00  1.43918E-05  1.0E-07
  3.400E+00  8.80086E-04  1.75785E-16  6.27738E+00  1.51664E-05  1.0E-07
  3.500E+00  9.32601E-04  1.62191E-16  5.79196E+00  1.59536E-05  1.0E-07
  3.600E+00  9.86636E-04  1.49897E-16  5.35292E+00  1.67526E-05  1.0E-07
  3.700E+00  1.04219E-03  1.38759E-16  4.95517E+00  1.75624E-05  1.0E-07
  3.800E+00  1.09927E-03  1.28651E-16  4.59422E+00  1.83822E-05  1.0E-07
  3.900E+00  1.15786E-03  1.19464E-16  4.26612E+00  1.92111E-05  1.0E-07
  4.000E+00  1.21797E-03  1.11098E-16  3.96739E+00  2.00481E-05  1.0E-07
  4.100E+00  1.27961E-03  1.03469E-16  3.69495E+00  2.08925E-05  1.0E-07
  4.200E+00  1.34276E-03  9.65000E-17  3.44608E+00  2.17434E-05  1.0E-07
  4.300E+00  1.40743E-03  9.01238E-17  3.21838E+00  2.26001E-05  1.0E-07
  4.400E+00  1.47362E-03  8.42808E-17  3.00972E+00  2.34617E-05  1.0E-07
  4.500E+00  1.54133E-03  7.89181E-17  2.81822E+00  2.43275E-05  1.0E-07
  4.600E+00  1.61056E-03  7.39889E-17  2.64219E+00  2.51968E-05  1.0E-07
  4.700E+00  1.68131E-03  6.94514E-17  2.48015E+00  2.60689E-05  1.0E-07
  4.800E+00  1.75357E-03  6.52684E-17  2.33078E+00  2.69429E-05  1.0E-07
  4.900E+00  1.82735E-03  6.14067E-17  2.19287E+00  2.78183E-05  1.0E-07
  5.000E+00  1.90265E-03  5.78367E-17  2.06539E+00  2.86943E-05  1.0E-07
  5.100E+00  1.97947E-03  5.45319E-17  1.94737E+00  2.95703E-05  1.0E-07
  5.200E+00  2.05780E-03  5.14687E-17  1.83798E+00  3.04457E-05  1.0E-07
  5.300E+00  2.13765E-03  4.86256E-17  1.73645E+00  3.13197E-05  1.0E-07
  5.400E+00  2.21902E-03  4.59836E-17  1.64211E+00  3.21918E-05  1.0E-07
  5.500E+00  2.30190E-03  4.35255E-17  1.55432E+00  3.30613E-05  1.0E-07
  5.600E+00  2.38630E-03  4.12357E-17  1.47255E+00  3.39276E-05  1.0E-07
  5.700E+00  2.47222E-03  3.91003E-17  1.39630E+00  3.47901E-05  1.0E-07
  5.800E+00  2.55965E-03  3.71066E-17  1.32510E+00  3.56482E-05  1.0E-07
  5.900E+00  2.64859E-03  3.52431E-17  1.25856E+00  3.65012E-05  1.0E-07
  6.000E+00  2.73905E-03  3.34996E-17  1.19629E+00  3.73486E-05  1.0E-07
  6.100E+00  2.83103E-03  3.18666E-17  1.13798E+00  3.81898E-05  1.0E-07
  6.200E+00  2.92452E-03  3.03356E-17  1.08330E+00  3.90242E-05  1.0E-07
  6.300E+00  3.01952E-03  2.88987E-17  1.03199E+00  3.98511E-05  1.0E-07
  6.400E+00  3.11604E-03  2.75490E-17  9.83793E-01  4.06701E-05  1.0E-07
  6.500E+00  3.21407E-03  2.62800E-17  9.38475E-01  4.14804E-05  1.0E-07
  6.600E+00  3.31362E-03  2.50857E-17  8.95826E-01  4.22815E-05  1.0E-07
  6.700E+00  3.41468E-03  2.39608E-17  8.55656E-01  4.30729E-05  1.0E-07
  6.800E+00  3.51725E-03  2.29004E-17  8.17787E-01  4.38538E-05  1.0E-07
  6.900E+00  3.62133E-03  2.18999E-17  7.82059E-01  4.46238E-05  1.0E-07
  7.000E+00  3.72692E-03  2.09552E-17  7.48324E-01  4.53823E-05  1.0E-07
  7.100E+00  3.83403E-03  2.00625E-17  7.16444E-01  4.61285E-05  1.0E-07
  7.200E+00  3.94265E-03  1.92183E-17  6.86297E-01  4.68620E-05  1.0E-07
  7.300E+00  4.05278E-03  1.84193E-17  6.57765E-01  4.75822E-05  1.0E-07
  7.400E+00  4.16442E-03  1.76626E-17  6.30744E-01  4.82883E-05  1.0E-07
  7.500E+00  4.27757E-03  1.69455E-17  6.05135E-01  4.89800E-05  1.0E-07
  7.600E+00  4.39223E-03  1.62654E-17  5.80848E-01  4.96564E-05  1.0E-07
  7.700E+00  4.50840E-03  1.56200E-17  5.57800E-01  5.03171E-05  1.0E-07
  7.800E+00  4.62608E-03  1.50071E-17  5.35914E-01  5.09615E-05  1.0E-07
  7.900E+00  4.74527E-03  1.44247E-17  5.15117E-01  5.15889E-05  1.0E-07
  8.000E+00  4.86597E-03  1.38710E-17  4.95343E-01  5.21987E-05  1.0E-07
  8.100E+00  4.98817E-03  1.33442E-17  4.76532E-01  5.27903E-05  1.0E-07
  8.200E+00  5.11188E-03  1.28428E-17  4.58625E-01  5.33631E-05  1.0E-07
  8.300E+00  5.23711E-03  1.23652E-17  4.41570E-01  5.39165E-05  1.0E-07
  8.400E+00  5.36383E-03  1.19101E-17  4.25316E-01  5.44499E-05  1.0E-07
  8.500E+00  5.49207E-03  1.14761E-17  4.09819E-01  5.49627E-05  1.0E-07
  8.600E+00  5.62181E-03  1.10621E-17  3.95036E-01  5.54543E-05  1.0E-07
  8.700E+00  5.75306E-03  1.06670E-17  3.80925E-01  5.59240E-05  1.0E-07
  8.800E+00  5.88581E-03  1.02897E-17  3.67450E-01  5.63713E-05  1.0E-07
  8.900E+00  6.02007E-03  9.92915E-18  3.54576E-01  5.67955E-05  1.0E-07
  9.000E+00  6.15583E-03  9.58456E-18  3.42271E-01  5.71960E-05  1.0E-07
  9.100E+00  6.29310E-03  9.25502E-18  3.30503E-01  5.75722E-05  1.0E-07
  9.200E+00  6.43187E-03  8.93975E-18  3.19244E-01  5.79236E-05  1.0E-07
  9.300E+00  6.57214E-03  8.63798E-18  3.08468E-01  5.82494E-05  1.0E-07
  9.400E+00  6.71392E-03  8.34902E-18  2.98149E-01  5.85491E-05  1.0E-07
  9.500E+00  6.85720E-03  8.07220E-18  2.88264E-01  5.88221E-05  1.0E-07
  9.600E+00  7.00198E-03  7.80691E-18  2.78790E-01  5.90678E-05  1.0E-07
  9.700E+00  7.14827E-03  7.55256E-18  2.69707E-01  5.92855E-05  1.0E-07
  9.800E+00  7.29605E-03  7.30861E-18  2.60995E-01  5.94746E-05  1.0E-07
  9.900E+00  7.44534E-03  7.07453E-18  2.52636E-01  5.96347E-05  1.0E-07
  1.000E+01  7.59612E-03  6.84986E-18  2.44613E-01  5.97649E-05  1.0E-07
  1.025E+01  7.97965E-03  6.32634E-18  2.25918E-01  5.99565E-05  1.0E-07
  1.050E+01  8.37255E-03  5.85230E-18  2.08989E-01  5.99491E-05  1.0E-07
  1.075E+01  8.77480E-03  5.42217E-18  1.93629E-01  5.97334E-05  1.0E-07
  1.100E+01  9.18641E-03  5.03109E-18  1.79663E-01  5.93004E-05  1.0E-07
  1.125E+01  9.60736E-03  4.67483E-18  1.66941E-01  5.86409E-05  1.0E-07
  1.150E+01  1.00376E-02  4.34970E-18  1.55331E-01  5.77461E-05  1.0E-07
  1.175E+01  1.04773E-02  4.05247E-18  1.44716E-01  5.66071E-05  1.0E-07
  1.200E+01  1.09262E-02  3.78028E-18  1.34996E-01  5.52154E-05  1.0E-07
  1.225E+01  1.13844E-02  3.53063E-18  1.26081E-01  5.35623E-05  1.0E-07
  1.250E+01  1.18520E-02  3.30130E-18  1.17891E-01  5.16396E-05  1.0E-07
  1.275E+01  1.23288E-02  3.09032E-18  1.10357E-01  4.94390E-05  1.0E-07
  1.300E+01  1.28150E-02  2.89596E-18  1.03417E-01  4.69524E-05  1.0E-07
  1.325E+01  1.33104E-02  2.71666E-18  9.70136E-02  4.41719E-05  1.0E-07
  1.350E+01  1.38150E-02  2.55103E-18  9.10990E-02  4.10899E-05  1.0E-07
  1.375E+01  1.43290E-02  2.39784E-18  8.56286E-02  3.76988E-05  1.0E-07
  1.400E+01  1.48521E-02  2.25599E-18  8.05629E-02  3.39911E-05  1.0E-07
  1.425E+01  1.53845E-02  2.12447E-18  7.58664E-02  2.99596E-05  1.0E-07
  1.450E+01  1.59262E-02  2.00241E-18  7.15072E-02  2.55973E-05  1.0E-07
  1.475E+01  1.64770E-02  1.88898E-18  6.74567E-02  2.08973E-05  1.0E-07
  1.500E+01  1.70371E-02  1.78347E-18  6.36889E-02  1.58529E-05  1.0E-07
