 #
 # Subroutine ELSEPA. Elastic scattering of electrons and positrons
 #                    by neutral atoms and positive ions
 #
 # Projectile: electron
 # Kinetic energy = 7.00000E+01 eV = 2.57245E+00 a.u.
 #
 #  ***  WARNING: Energy is too low.
 #                The reliability of the results is questionable.
 #
 # Element: Si,  Z =  14,  atomic weight = 2.80855E+01 g/mol
 #
 # Nuclear model: Fermi distribution
 #                Average radius = 3.25245E-13 cm
 #                Skin thickness = 5.46000E-14 cm
 #
 # Number of electrons = 14
 #
 # Electron density: analytical DHFS model
 #                   A1 =  5.15971D-01 ,   ALPHA1 = 5.84918D+00
 #                   A2 =  4.84029D-01 ,   ALPHA2 = 1.17314D+00
 #                   A3 =  0.00000D+00 ,   ALPHA3 = 1.00000D+00
 #                   Volume integral = 1.40000E+01
 #
 # Furness-McCarthy exchange potential
 #
 # Correlation-polarization potential (Buckingham):
 #                           Alpha = 5.38000E-24 cm**3
 #                            Bpol = 1.11803E+00
 #
 # Total elastic cross section = 1.31437E-15 cm**2 = 4.69371E+01 a0**2
 # 1st transport cross section = 4.68508E-16 cm**2 = 1.67307E+01 a0**2
 # 2nd transport cross section = 4.37146E-16 cm**2 = 1.56108E+01 a0**2
 #
 #
 # Differential cross section:                       MU=(1-COS(THETA))/2
 #
 #  THETA        MU          DCS          DCS        Sherman      error
 #  (deg)                 (cm**2/sr)   (a0**2/sr)    function
 #----------------------------------------------------------------------
  0.000E+00  0.00000E+00  7.23883E-15  2.58503E+02  0.00000E+00  1.0E-07
  1.000E-04  7.61557E-13  7.23883E-15  2.58503E+02  5.16164E-10  1.0E-07
  1.250E-04  1.18994E-12  7.23883E-15  2.58503E+02  6.45205E-10  1.0E-07
  1.500E-04  1.71346E-12  7.23883E-15  2.58503E+02  7.74246E-10  1.0E-07
  1.750E-04  2.33225E-12  7.23883E-15  2.58503E+02  9.03287E-10  1.0E-07
  2.000E-04  3.04617E-12  7.23883E-15  2.58503E+02  1.03233E-09  1.0E-07
  2.250E-04  3.85530E-12  7.23883E-15  2.58503E+02  1.16137E-09  1.0E-07
  2.500E-04  4.75964E-12  7.23883E-15  2.58503E+02  1.29041E-09  1.0E-07
  2.750E-04  5.75917E-12  7.23883E-15  2.58503E+02  1.41945E-09  1.0E-07
  3.000E-04  6.85391E-12  7.23883E-15  2.58503E+02  1.54849E-09  1.0E-07
  3.250E-04  8.04379E-12  7.23883E-15  2.58503E+02  1.67753E-09  1.0E-07
  3.500E-04  9.32893E-12  7.23883E-15  2.58503E+02  1.80657E-09  1.0E-07
  3.750E-04  1.07092E-11  7.23883E-15  2.58503E+02  1.93562E-09  1.0E-07
  4.000E-04  1.21847E-11  7.23883E-15  2.58503E+02  2.06466E-09  1.0E-07
  4.250E-04  1.37554E-11  7.23883E-15  2.58503E+02  2.19370E-09  1.0E-07
  4.500E-04  1.54213E-11  7.23883E-15  2.58503E+02  2.32274E-09  1.0E-07
  4.750E-04  1.71823E-11  7.23883E-15  2.58503E+02  2.45178E-09  1.0E-07
  5.000E-04  1.90386E-11  7.23883E-15  2.58503E+02  2.58082E-09  1.0E-07
  5.250E-04  2.09900E-11  7.23883E-15  2.58503E+02  2.70986E-09  1.0E-07
  5.500E-04  2.30367E-11  7.23883E-15  2.58503E+02  2.83890E-09  1.0E-07
  5.750E-04  2.51785E-11  7.23883E-15  2.58503E+02  2.96794E-09  1.0E-07
  6.000E-04  2.74156E-11  7.23883E-15  2.58503E+02  3.09698E-09  1.0E-07
  6.250E-04  2.97478E-11  7.23883E-15  2.58503E+02  3.22603E-09  1.0E-07
  6.500E-04  3.21752E-11  7.23883E-15  2.58503E+02  3.35507E-09  1.0E-07
  6.750E-04  3.46979E-11  7.23883E-15  2.58503E+02  3.48411E-09  1.0E-07
  7.000E-04  3.73157E-11  7.23883E-15  2.58503E+02  3.61315E-09  1.0E-07
  7.250E-04  4.00286E-11  7.23883E-15  2.58503E+02  3.74219E-09  1.0E-07
  7.500E-04  4.28368E-11  7.23883E-15  2.58503E+02  3.87123E-09  1.0E-07
  7.750E-04  4.57402E-11  7.23883E-15  2.58503E+02  4.00027E-09  1.0E-07
  8.000E-04  4.87388E-11  7.23883E-15  2.58503E+02  4.12931E-09  1.0E-07
  8.250E-04  5.18325E-11  7.23883E-15  2.58503E+02  4.25835E-09  1.0E-07
  8.500E-04  5.50215E-11  7.23883E-15  2.58503E+02  4.38739E-09  1.0E-07
  8.750E-04  5.83057E-11  7.23883E-15  2.58503E+02  4.51644E-09  1.0E-07
  9.000E-04  6.16850E-11  7.23883E-15  2.58503E+02  4.64548E-09  1.0E-07
  9.250E-04  6.51595E-11  7.23883E-15  2.58503E+02  4.77452E-09  1.0E-07
  9.500E-04  6.87293E-11  7.23883E-15  2.58503E+02  4.90356E-09  1.0E-07
  9.750E-04  7.23943E-11  7.23883E-15  2.58503E+02  5.03260E-09  1.0E-07
  1.000E-03  7.61544E-11  7.23883E-15  2.58503E+02  5.16164E-09  1.0E-07
  1.250E-03  1.18991E-10  7.23883E-15  2.58503E+02  6.45205E-09  1.0E-07
  1.500E-03  1.71347E-10  7.23883E-15  2.58503E+02  7.74246E-09  1.0E-07
  1.750E-03  2.33223E-10  7.23883E-15  2.58503E+02  9.03287E-09  1.0E-07
  2.000E-03  3.04617E-10  7.23883E-15  2.58503E+02  1.03233E-08  1.0E-07
  2.250E-03  3.85531E-10  7.23883E-15  2.58503E+02  1.16137E-08  1.0E-07
  2.500E-03  4.75965E-10  7.23883E-15  2.58503E+02  1.29041E-08  1.0E-07
  2.750E-03  5.75917E-10  7.23883E-15  2.58503E+02  1.41945E-08  1.0E-07
  3.000E-03  6.85389E-10  7.23883E-15  2.58503E+02  1.54849E-08  1.0E-07
  3.250E-03  8.04380E-10  7.23883E-15  2.58503E+02  1.67753E-08  1.0E-07
  3.500E-03  9.32891E-10  7.23883E-15  2.58503E+02  1.80657E-08  1.0E-07
  3.750E-03  1.07092E-09  7.23883E-15  2.58503E+02  1.93562E-08  1.0E-07
  4.000E-03  1.21847E-09  7.23883E-15  2.58503E+02  2.06466E-08  1.0E-07
  4.250E-03  1.37554E-09  7.23883E-15  2.58503E+02  2.19370E-08  1.0E-07
  4.500E-03  1.54213E-09  7.23883E-15  2.58503E+02  2.32274E-08  1.0E-07
  4.750E-03  1.71823E-09  7.23882E-15  2.58503E+02  2.45178E-08  1.0E-07
  5.000E-03  1.90386E-09  7.23882E-15  2.58503E+02  2.58082E-08  1.0E-07
  5.250E-03  2.09900E-09  7.23882E-15  2.58503E+02  2.70986E-08  1.0E-07
  5.500E-03  2.30367E-09  7.23882E-15  2.58503E+02  2.83890E-08  1.0E-07
  5.750E-03  2.51785E-09  7.23882E-15  2.58503E+02  2.96795E-08  1.0E-07
  6.000E-03  2.74156E-09  7.23882E-15  2.58503E+02  3.09699E-08  1.0E-07
  6.250E-03  2.97478E-09  7.23882E-15  2.58503E+02  3.22603E-08  1.0E-07
  6.500E-03  3.21752E-09  7.23882E-15  2.58503E+02  3.35507E-08  1.0E-07
  6.750E-03  3.46978E-09  7.23882E-15  2.58503E+02  3.48411E-08  1.0E-07
  7.000E-03  3.73156E-09  7.23881E-15  2.58503E+02  3.61315E-08  1.0E-07
  7.250E-03  4.00286E-09  7.23881E-15  2.58503E+02  3.74219E-08  1.0E-07
  7.500E-03  4.28368E-09  7.23881E-15  2.58503E+02  3.87124E-08  1.0E-07
  7.750E-03  4.57402E-09  7.23881E-15  2.58503E+02  4.00028E-08  1.0E-07
  8.000E-03  4.87388E-09  7.23881E-15  2.58503E+02  4.12932E-08  1.0E-07
  8.250E-03  5.18326E-09  7.23881E-15  2.58503E+02  4.25836E-08  1.0E-07
  8.500E-03  5.50215E-09  7.23881E-15  2.58502E+02  4.38740E-08  1.0E-07
  8.750E-03  5.83057E-09  7.23880E-15  2.58502E+02  4.51645E-08  1.0E-07
  9.000E-03  6.16850E-09  7.23880E-15  2.58502E+02  4.64549E-08  1.0E-07
  9.250E-03  6.51596E-09  7.23880E-15  2.58502E+02  4.77453E-08  1.0E-07
  9.500E-03  6.87293E-09  7.23880E-15  2.58502E+02  4.90357E-08  1.0E-07
  9.750E-03  7.23942E-09  7.23880E-15  2.58502E+02  5.03261E-08  1.0E-07
  1.000E-02  7.61544E-09  7.23880E-15  2.58502E+02  5.16166E-08  1.0E-07
  1.250E-02  1.18991E-08  7.23878E-15  2.58501E+02  6.45208E-08  1.0E-07
  1.500E-02  1.71347E-08  7.23875E-15  2.58500E+02  7.74251E-08  1.0E-07
  1.750E-02  2.33223E-08  7.23872E-15  2.58499E+02  9.03295E-08  1.0E-07
  2.000E-02  3.04617E-08  7.23869E-15  2.58498E+02  1.03234E-07  1.0E-07
  2.250E-02  3.85531E-08  7.23865E-15  2.58497E+02  1.16139E-07  1.0E-07
  2.500E-02  4.75965E-08  7.23860E-15  2.58495E+02  1.29043E-07  1.0E-07
  2.750E-02  5.75917E-08  7.23856E-15  2.58494E+02  1.41948E-07  1.0E-07
  3.000E-02  6.85389E-08  7.23850E-15  2.58492E+02  1.54853E-07  1.0E-07
  3.250E-02  8.04380E-08  7.23845E-15  2.58490E+02  1.67759E-07  1.0E-07
  3.500E-02  9.32891E-08  7.23839E-15  2.58487E+02  1.80664E-07  1.0E-07
  3.750E-02  1.07092E-07  7.23832E-15  2.58485E+02  1.93570E-07  1.0E-07
  4.000E-02  1.21847E-07  7.23825E-15  2.58483E+02  2.06475E-07  1.0E-07
  4.250E-02  1.37554E-07  7.23817E-15  2.58480E+02  2.19381E-07  1.0E-07
  4.500E-02  1.54213E-07  7.23809E-15  2.58477E+02  2.32288E-07  1.0E-07
  4.750E-02  1.71823E-07  7.23801E-15  2.58474E+02  2.45194E-07  1.0E-07
  5.000E-02  1.90386E-07  7.23792E-15  2.58471E+02  2.58101E-07  1.0E-07
  5.250E-02  2.09900E-07  7.23783E-15  2.58468E+02  2.71008E-07  1.0E-07
  5.500E-02  2.30367E-07  7.23773E-15  2.58464E+02  2.83916E-07  1.0E-07
  5.750E-02  2.51785E-07  7.23763E-15  2.58460E+02  2.96823E-07  1.0E-07
  6.000E-02  2.74156E-07  7.23752E-15  2.58457E+02  3.09731E-07  1.0E-07
  6.250E-02  2.97478E-07  7.23741E-15  2.58453E+02  3.22640E-07  1.0E-07
  6.500E-02  3.21752E-07  7.23729E-15  2.58448E+02  3.35548E-07  1.0E-07
  6.750E-02  3.46978E-07  7.23717E-15  2.58444E+02  3.48458E-07  1.0E-07
  7.000E-02  3.73156E-07  7.23705E-15  2.58440E+02  3.61367E-07  1.0E-07
  7.250E-02  4.00286E-07  7.23692E-15  2.58435E+02  3.74277E-07  1.0E-07
  7.500E-02  4.28368E-07  7.23678E-15  2.58430E+02  3.87187E-07  1.0E-07
  7.750E-02  4.57402E-07  7.23664E-15  2.58425E+02  4.00098E-07  1.0E-07
  8.000E-02  4.87388E-07  7.23650E-15  2.58420E+02  4.13009E-07  1.0E-07
  8.250E-02  5.18325E-07  7.23635E-15  2.58415E+02  4.25921E-07  1.0E-07
  8.500E-02  5.50215E-07  7.23620E-15  2.58409E+02  4.38833E-07  1.0E-07
  8.750E-02  5.83057E-07  7.23604E-15  2.58404E+02  4.51746E-07  1.0E-07
  9.000E-02  6.16850E-07  7.23588E-15  2.58398E+02  4.64659E-07  1.0E-07
  9.250E-02  6.51596E-07  7.23571E-15  2.58392E+02  4.77572E-07  1.0E-07
  9.500E-02  6.87293E-07  7.23554E-15  2.58386E+02  4.90487E-07  1.0E-07
  9.750E-02  7.23942E-07  7.23537E-15  2.58380E+02  5.03401E-07  1.0E-07
  1.000E-01  7.61543E-07  7.23519E-15  2.58373E+02  5.16316E-07  1.0E-07
  1.250E-01  1.18991E-06  7.23314E-15  2.58300E+02  6.45503E-07  1.0E-07
  1.500E-01  1.71347E-06  7.23064E-15  2.58211E+02  7.74760E-07  1.0E-07
  1.750E-01  2.33223E-06  7.22769E-15  2.58105E+02  9.04103E-07  1.0E-07
  2.000E-01  3.04617E-06  7.22429E-15  2.57984E+02  1.03355E-06  1.0E-07
  2.250E-01  3.85531E-06  7.22045E-15  2.57847E+02  1.16310E-06  1.0E-07
  2.500E-01  4.75964E-06  7.21616E-15  2.57694E+02  1.29279E-06  1.0E-07
  2.750E-01  5.75916E-06  7.21143E-15  2.57525E+02  1.42261E-06  1.0E-07
  3.000E-01  6.85388E-06  7.20626E-15  2.57340E+02  1.55259E-06  1.0E-07
  3.250E-01  8.04378E-06  7.20066E-15  2.57140E+02  1.68274E-06  1.0E-07
  3.500E-01  9.32888E-06  7.19463E-15  2.56925E+02  1.81307E-06  1.0E-07
  3.750E-01  1.07092E-05  7.18818E-15  2.56694E+02  1.94360E-06  1.0E-07
  4.000E-01  1.21846E-05  7.18130E-15  2.56449E+02  2.07434E-06  1.0E-07
  4.250E-01  1.37553E-05  7.17400E-15  2.56188E+02  2.20530E-06  1.0E-07
  4.500E-01  1.54212E-05  7.16630E-15  2.55913E+02  2.33649E-06  1.0E-07
  4.750E-01  1.71822E-05  7.15818E-15  2.55623E+02  2.46794E-06  1.0E-07
  5.000E-01  1.90385E-05  7.14967E-15  2.55319E+02  2.59964E-06  1.0E-07
  5.250E-01  2.09899E-05  7.14076E-15  2.55001E+02  2.73162E-06  1.0E-07
  5.500E-01  2.30365E-05  7.13146E-15  2.54669E+02  2.86389E-06  1.0E-07
  5.750E-01  2.51783E-05  7.12177E-15  2.54323E+02  2.99645E-06  1.0E-07
  6.000E-01  2.74153E-05  7.11171E-15  2.53964E+02  3.12933E-06  1.0E-07
  6.250E-01  2.97475E-05  7.10127E-15  2.53591E+02  3.26253E-06  1.0E-07
  6.500E-01  3.21749E-05  7.09047E-15  2.53205E+02  3.39606E-06  1.0E-07
  6.750E-01  3.46974E-05  7.07931E-15  2.52807E+02  3.52994E-06  1.0E-07
  7.000E-01  3.73152E-05  7.06780E-15  2.52396E+02  3.66418E-06  1.0E-07
  7.250E-01  4.00281E-05  7.05595E-15  2.51973E+02  3.79878E-06  1.0E-07
  7.500E-01  4.28362E-05  7.04376E-15  2.51537E+02  3.93377E-06  1.0E-07
  7.750E-01  4.57395E-05  7.03124E-15  2.51090E+02  4.06914E-06  1.0E-07
  8.000E-01  4.87380E-05  7.01840E-15  2.50632E+02  4.20492E-06  1.0E-07
  8.250E-01  5.18317E-05  7.00525E-15  2.50162E+02  4.34110E-06  1.0E-07
  8.500E-01  5.50205E-05  6.99179E-15  2.49681E+02  4.47771E-06  1.0E-07
  8.750E-01  5.83045E-05  6.97803E-15  2.49190E+02  4.61474E-06  1.0E-07
  9.000E-01  6.16838E-05  6.96399E-15  2.48688E+02  4.75221E-06  1.0E-07
  9.250E-01  6.51582E-05  6.94966E-15  2.48177E+02  4.89014E-06  1.0E-07
  9.500E-01  6.87277E-05  6.93506E-15  2.47655E+02  5.02851E-06  1.0E-07
  9.750E-01  7.23925E-05  6.92019E-15  2.47124E+02  5.16736E-06  1.0E-07
  1.000E+00  7.61524E-05  6.90507E-15  2.46584E+02  5.30668E-06  1.0E-07
  1.100E+00  9.21439E-05  6.84217E-15  2.44338E+02  5.86885E-06  1.0E-07
  1.200E+00  1.09658E-04  6.77586E-15  2.41970E+02  6.43920E-06  1.0E-07
  1.300E+00  1.28695E-04  6.70665E-15  2.39499E+02  7.01811E-06  1.0E-07
  1.400E+00  1.49255E-04  6.63509E-15  2.36943E+02  7.60593E-06  1.0E-07
  1.500E+00  1.71338E-04  6.56168E-15  2.34322E+02  8.20289E-06  1.0E-07
  1.600E+00  1.94942E-04  6.48692E-15  2.31652E+02  8.80918E-06  1.0E-07
  1.700E+00  2.20070E-04  6.41126E-15  2.28950E+02  9.42491E-06  1.0E-07
  1.800E+00  2.46720E-04  6.33512E-15  2.26231E+02  1.00501E-05  1.0E-07
  1.900E+00  2.74892E-04  6.25888E-15  2.23509E+02  1.06849E-05  1.0E-07
  2.000E+00  3.04586E-04  6.18287E-15  2.20794E+02  1.13290E-05  1.0E-07
  2.100E+00  3.35803E-04  6.10737E-15  2.18098E+02  1.19826E-05  1.0E-07
  2.200E+00  3.68542E-04  6.03263E-15  2.15429E+02  1.26454E-05  1.0E-07
  2.300E+00  4.02802E-04  5.95884E-15  2.12794E+02  1.33173E-05  1.0E-07
  2.400E+00  4.38585E-04  5.88616E-15  2.10198E+02  1.39982E-05  1.0E-07
  2.500E+00  4.75889E-04  5.81469E-15  2.07646E+02  1.46879E-05  1.0E-07
  2.600E+00  5.14715E-04  5.74451E-15  2.05140E+02  1.53863E-05  1.0E-07
  2.700E+00  5.55063E-04  5.67565E-15  2.02681E+02  1.60934E-05  1.0E-07
  2.800E+00  5.96931E-04  5.60813E-15  2.00270E+02  1.68089E-05  1.0E-07
  2.900E+00  6.40321E-04  5.54191E-15  1.97905E+02  1.75329E-05  1.0E-07
  3.000E+00  6.85233E-04  5.47697E-15  1.95586E+02  1.82653E-05  1.0E-07
  3.100E+00  7.31665E-04  5.41324E-15  1.93310E+02  1.90061E-05  1.0E-07
  3.200E+00  7.79618E-04  5.35064E-15  1.91075E+02  1.97553E-05  1.0E-07
  3.300E+00  8.29092E-04  5.28910E-15  1.88877E+02  2.05131E-05  1.0E-07
  3.400E+00  8.80086E-04  5.22853E-15  1.86714E+02  2.12794E-05  1.0E-07
  3.500E+00  9.32601E-04  5.16885E-15  1.84583E+02  2.20546E-05  1.0E-07
  3.600E+00  9.86636E-04  5.10997E-15  1.82480E+02  2.28387E-05  1.0E-07
  3.700E+00  1.04219E-03  5.05180E-15  1.80403E+02  2.36319E-05  1.0E-07
  3.800E+00  1.09927E-03  4.99427E-15  1.78349E+02  2.44344E-05  1.0E-07
  3.900E+00  1.15786E-03  4.93733E-15  1.76315E+02  2.52464E-05  1.0E-07
  4.000E+00  1.21797E-03  4.88090E-15  1.74300E+02  2.60682E-05  1.0E-07
  4.100E+00  1.27961E-03  4.82496E-15  1.72302E+02  2.68999E-05  1.0E-07
  4.200E+00  1.34276E-03  4.76945E-15  1.70320E+02  2.77417E-05  1.0E-07
  4.300E+00  1.40743E-03  4.71437E-15  1.68353E+02  2.85939E-05  1.0E-07
  4.400E+00  1.47362E-03  4.65969E-15  1.66401E+02  2.94566E-05  1.0E-07
  4.500E+00  1.54133E-03  4.60542E-15  1.64463E+02  3.03299E-05  1.0E-07
  4.600E+00  1.61056E-03  4.55156E-15  1.62539E+02  3.12140E-05  1.0E-07
  4.700E+00  1.68131E-03  4.49811E-15  1.60631E+02  3.21089E-05  1.0E-07
  4.800E+00  1.75357E-03  4.44511E-15  1.58738E+02  3.30148E-05  1.0E-07
  4.900E+00  1.82735E-03  4.39256E-15  1.56861E+02  3.39316E-05  1.0E-07
  5.000E+00  1.90265E-03  4.34050E-15  1.55002E+02  3.48595E-05  1.0E-07
  5.100E+00  1.97947E-03  4.28894E-15  1.53161E+02  3.57984E-05  1.0E-07
  5.200E+00  2.05780E-03  4.23791E-15  1.51339E+02  3.67483E-05  1.0E-07
  5.300E+00  2.13765E-03  4.18744E-15  1.49536E+02  3.77092E-05  1.0E-07
  5.400E+00  2.21902E-03  4.13754E-15  1.47754E+02  3.86811E-05  1.0E-07
  5.500E+00  2.30190E-03  4.08823E-15  1.45993E+02  3.96639E-05  1.0E-07
  5.600E+00  2.38630E-03  4.03953E-15  1.44254E+02  4.06576E-05  1.0E-07
  5.700E+00  2.47222E-03  3.99143E-15  1.42537E+02  4.16622E-05  1.0E-07
  5.800E+00  2.55965E-03  3.94396E-15  1.40841E+02  4.26777E-05  1.0E-07
  5.900E+00  2.64859E-03  3.89709E-15  1.39168E+02  4.37041E-05  1.0E-07
  6.000E+00  2.73905E-03  3.85084E-15  1.37516E+02  4.47414E-05  1.0E-07
  6.100E+00  2.83103E-03  3.80518E-15  1.35886E+02  4.57896E-05  1.0E-07
  6.200E+00  2.92452E-03  3.76011E-15  1.34276E+02  4.68489E-05  1.0E-07
  6.300E+00  3.01952E-03  3.71562E-15  1.32687E+02  4.79193E-05  1.0E-07
  6.400E+00  3.11604E-03  3.67167E-15  1.31118E+02  4.90010E-05  1.0E-07
  6.500E+00  3.21407E-03  3.62825E-15  1.29567E+02  5.00939E-05  1.0E-07
  6.600E+00  3.31362E-03  3.58535E-15  1.28035E+02  5.11984E-05  1.0E-07
  6.700E+00  3.41468E-03  3.54294E-15  1.26521E+02  5.23145E-05  1.0E-07
  6.800E+00  3.51725E-03  3.50100E-15  1.25023E+02  5.34423E-05  1.0E-07
  6.900E+00  3.62133E-03  3.45950E-15  1.23541E+02  5.45822E-05  1.0E-07
  7.000E+00  3.72692E-03  3.41845E-15  1.22075E+02  5.57342E-05  1.0E-07
  7.100E+00  3.83403E-03  3.37781E-15  1.20624E+02  5.68985E-05  1.0E-07
  7.200E+00  3.94265E-03  3.33757E-15  1.19187E+02  5.80753E-05  1.0E-07
  7.300E+00  4.05278E-03  3.29773E-15  1.17764E+02  5.92646E-05  1.0E-07
  7.400E+00  4.16442E-03  3.25828E-15  1.16355E+02  6.04668E-05  1.0E-07
  7.500E+00  4.27757E-03  3.21921E-15  1.14960E+02  6.16818E-05  1.0E-07
  7.600E+00  4.39223E-03  3.18051E-15  1.13578E+02  6.29098E-05  1.0E-07
  7.700E+00  4.50840E-03  3.14219E-15  1.12210E+02  6.41509E-05  1.0E-07
  7.800E+00  4.62608E-03  3.10425E-15  1.10855E+02  6.54051E-05  1.0E-07
  7.900E+00  4.74527E-03  3.06669E-15  1.09514E+02  6.66726E-05  1.0E-07
  8.000E+00  4.86597E-03  3.02951E-15  1.08186E+02  6.79533E-05  1.0E-07
  8.100E+00  4.98817E-03  2.99272E-15  1.06872E+02  6.92472E-05  1.0E-07
  8.200E+00  5.11188E-03  2.95632E-15  1.05572E+02  7.05544E-05  1.0E-07
  8.300E+00  5.23711E-03  2.92032E-15  1.04287E+02  7.18749E-05  1.0E-07
  8.400E+00  5.36383E-03  2.88472E-15  1.03015E+02  7.32087E-05  1.0E-07
  8.500E+00  5.49207E-03  2.84953E-15  1.01758E+02  7.45557E-05  1.0E-07
  8.600E+00  5.62181E-03  2.81474E-15  1.00516E+02  7.59159E-05  1.0E-07
  8.700E+00  5.75306E-03  2.78036E-15  9.92883E+01  7.72894E-05  1.0E-07
  8.800E+00  5.88581E-03  2.74638E-15  9.80751E+01  7.86762E-05  1.0E-07
  8.900E+00  6.02007E-03  2.71281E-15  9.68763E+01  8.00762E-05  1.0E-07
  9.000E+00  6.15583E-03  2.67965E-15  9.56920E+01  8.14896E-05  1.0E-07
  9.100E+00  6.29310E-03  2.64688E-15  9.45220E+01  8.29162E-05  1.0E-07
  9.200E+00  6.43187E-03  2.61451E-15  9.33660E+01  8.43563E-05  1.0E-07
  9.300E+00  6.57214E-03  2.58253E-15  9.22239E+01  8.58098E-05  1.0E-07
  9.400E+00  6.71392E-03  2.55093E-15  9.10953E+01  8.72768E-05  1.0E-07
  9.500E+00  6.85720E-03  2.51970E-15  8.99800E+01  8.87575E-05  1.0E-07
  9.600E+00  7.00198E-03  2.48883E-15  8.88777E+01  9.02519E-05  1.0E-07
  9.700E+00  7.14827E-03  2.45832E-15  8.77881E+01  9.17602E-05  1.0E-07
  9.800E+00  7.29605E-03  2.42815E-15  8.67109E+01  9.32824E-05  1.0E-07
  9.900E+00  7.44534E-03  2.39832E-15  8.56457E+01  9.48187E-05  1.0E-07
  1.000E+01  7.59612E-03  2.36883E-15  8.45924E+01  9.63692E-05  1.0E-07
  1.025E+01  7.97965E-03  2.29648E-15  8.20089E+01  1.00308E-04  1.0E-07
  1.050E+01  8.37255E-03  2.22607E-15  7.94943E+01  1.04338E-04  1.0E-07
  1.075E+01  8.77480E-03  2.15752E-15  7.70465E+01  1.08460E-04  1.0E-07
  1.100E+01  9.18641E-03  2.09082E-15  7.46645E+01  1.12674E-04  1.0E-07
  1.125E+01  9.60736E-03  2.02595E-15  7.23482E+01  1.16980E-04  1.0E-07
  1.150E+01  1.00376E-02  1.96293E-15  7.00976E+01  1.21379E-04  1.0E-07
  1.175E+01  1.04773E-02  1.90175E-15  6.79126E+01  1.25868E-04  1.0E-07
  1.200E+01  1.09262E-02  1.84239E-15  6.57928E+01  1.30448E-04  1.0E-07
  1.225E+01  1.13844E-02  1.78481E-15  6.37367E+01  1.35118E-04  1.0E-07
  1.250E+01  1.18520E-02  1.72896E-15  6.17424E+01  1.39878E-04  1.0E-07
  1.275E+01  1.23288E-02  1.67478E-15  5.98076E+01  1.44728E-04  1.0E-07
  1.300E+01  1.28150E-02  1.62220E-15  5.79298E+01  1.49668E-04  1.0E-07
  1.325E+01  1.33104E-02  1.57114E-15  5.61065E+01  1.54698E-04  1.0E-07
  1.350E+01  1.38150E-02  1.52156E-15  5.43358E+01  1.59816E-04  1.0E-07
  1.375E+01  1.43290E-02  1.47340E-15  5.26161E+01  1.65023E-04  1.0E-07
  1.400E+01  1.48521E-02  1.42664E-15  5.09463E+01  1.70316E-04  1.0E-07
