 #
 # Subroutine ELSEPA. Elastic scattering of electrons and positrons
 #                    by neutral atoms and positive ions
 #
 # Projectile: electron
 # Kinetic energy = 1.10000E+01 eV = 4.04243E-01 a.u.
 #
 #  ***  WARNING: Energy is too low.
 #                The reliability of the results is questionable.
 #
 # Element: Si,  Z =  14,  atomic weight = 2.80855E+01 g/mol
 #
 # Nuclear model: Fermi distribution
 #                Average radius = 3.25245E-13 cm
 #                Skin thickness = 5.46000E-14 cm
 #
 # Number of electrons = 14
 #
 # Electron density: analytical DHFS model
 #                   A1 =  5.15971D-01 ,   ALPHA1 = 5.84918D+00
 #                   A2 =  4.84029D-01 ,   ALPHA2 = 1.17314D+00
 #                   A3 =  0.00000D+00 ,   ALPHA3 = 1.00000D+00
 #                   Volume integral = 1.40000E+01
 #
 # Furness-McCarthy exchange potential
 #
 # Correlation-polarization potential (Buckingham):
 #                           Alpha = 5.38000E-24 cm**3
 #                            Bpol = 1.00000E+00
 #
 # Total elastic cross section = 1.36594E-15 cm**2 = 4.87787E+01 a0**2
 # 1st transport cross section = 8.61973E-16 cm**2 = 3.07816E+01 a0**2
 # 2nd transport cross section = 1.10184E-15 cm**2 = 3.93474E+01 a0**2
 #
 #
 # Differential cross section:                       MU=(1-COS(THETA))/2
 #
 #  THETA        MU          DCS          DCS        Sherman      error
 #  (deg)                 (cm**2/sr)   (a0**2/sr)    function
 #----------------------------------------------------------------------
  0.000E+00  0.00000E+00  1.51821E-15  5.42162E+01  0.00000E+00  1.0E-07
  1.000E-04  7.61557E-13  1.51821E-15  5.42162E+01 -4.35175E-09  1.0E-07
  1.250E-04  1.18994E-12  1.51821E-15  5.42162E+01 -5.43968E-09  1.0E-07
  1.500E-04  1.71346E-12  1.51821E-15  5.42162E+01 -6.52762E-09  1.0E-07
  1.750E-04  2.33225E-12  1.51821E-15  5.42162E+01 -7.61556E-09  1.0E-07
  2.000E-04  3.04617E-12  1.51821E-15  5.42162E+01 -8.70349E-09  1.0E-07
  2.250E-04  3.85530E-12  1.51821E-15  5.42162E+01 -9.79143E-09  1.0E-07
  2.500E-04  4.75964E-12  1.51821E-15  5.42162E+01 -1.08794E-08  1.0E-07
  2.750E-04  5.75917E-12  1.51821E-15  5.42162E+01 -1.19673E-08  1.0E-07
  3.000E-04  6.85391E-12  1.51821E-15  5.42162E+01 -1.30552E-08  1.0E-07
  3.250E-04  8.04379E-12  1.51821E-15  5.42162E+01 -1.41432E-08  1.0E-07
  3.500E-04  9.32893E-12  1.51821E-15  5.42162E+01 -1.52311E-08  1.0E-07
  3.750E-04  1.07092E-11  1.51821E-15  5.42162E+01 -1.63190E-08  1.0E-07
  4.000E-04  1.21847E-11  1.51821E-15  5.42162E+01 -1.74070E-08  1.0E-07
  4.250E-04  1.37554E-11  1.51821E-15  5.42162E+01 -1.84949E-08  1.0E-07
  4.500E-04  1.54213E-11  1.51821E-15  5.42162E+01 -1.95829E-08  1.0E-07
  4.750E-04  1.71823E-11  1.51821E-15  5.42162E+01 -2.06708E-08  1.0E-07
  5.000E-04  1.90386E-11  1.51821E-15  5.42162E+01 -2.17587E-08  1.0E-07
  5.250E-04  2.09900E-11  1.51821E-15  5.42162E+01 -2.28467E-08  1.0E-07
  5.500E-04  2.30367E-11  1.51821E-15  5.42162E+01 -2.39346E-08  1.0E-07
  5.750E-04  2.51785E-11  1.51821E-15  5.42162E+01 -2.50225E-08  1.0E-07
  6.000E-04  2.74156E-11  1.51821E-15  5.42162E+01 -2.61105E-08  1.0E-07
  6.250E-04  2.97478E-11  1.51821E-15  5.42162E+01 -2.71984E-08  1.0E-07
  6.500E-04  3.21752E-11  1.51821E-15  5.42162E+01 -2.82863E-08  1.0E-07
  6.750E-04  3.46979E-11  1.51821E-15  5.42162E+01 -2.93743E-08  1.0E-07
  7.000E-04  3.73157E-11  1.51821E-15  5.42162E+01 -3.04622E-08  1.0E-07
  7.250E-04  4.00286E-11  1.51821E-15  5.42162E+01 -3.15502E-08  1.0E-07
  7.500E-04  4.28368E-11  1.51821E-15  5.42162E+01 -3.26381E-08  1.0E-07
  7.750E-04  4.57402E-11  1.51821E-15  5.42162E+01 -3.37260E-08  1.0E-07
  8.000E-04  4.87388E-11  1.51821E-15  5.42162E+01 -3.48140E-08  1.0E-07
  8.250E-04  5.18325E-11  1.51821E-15  5.42162E+01 -3.59019E-08  1.0E-07
  8.500E-04  5.50215E-11  1.51821E-15  5.42162E+01 -3.69898E-08  1.0E-07
  8.750E-04  5.83057E-11  1.51821E-15  5.42162E+01 -3.80778E-08  1.0E-07
  9.000E-04  6.16850E-11  1.51821E-15  5.42162E+01 -3.91657E-08  1.0E-07
  9.250E-04  6.51595E-11  1.51821E-15  5.42162E+01 -4.02536E-08  1.0E-07
  9.500E-04  6.87293E-11  1.51821E-15  5.42162E+01 -4.13416E-08  1.0E-07
  9.750E-04  7.23943E-11  1.51821E-15  5.42162E+01 -4.24295E-08  1.0E-07
  1.000E-03  7.61544E-11  1.51821E-15  5.42162E+01 -4.35175E-08  1.0E-07
  1.250E-03  1.18991E-10  1.51821E-15  5.42162E+01 -5.43968E-08  1.0E-07
  1.500E-03  1.71347E-10  1.51821E-15  5.42162E+01 -6.52762E-08  1.0E-07
  1.750E-03  2.33223E-10  1.51821E-15  5.42162E+01 -7.61556E-08  1.0E-07
  2.000E-03  3.04617E-10  1.51821E-15  5.42162E+01 -8.70349E-08  1.0E-07
  2.250E-03  3.85531E-10  1.51821E-15  5.42162E+01 -9.79143E-08  1.0E-07
  2.500E-03  4.75965E-10  1.51821E-15  5.42162E+01 -1.08794E-07  1.0E-07
  2.750E-03  5.75917E-10  1.51821E-15  5.42162E+01 -1.19673E-07  1.0E-07
  3.000E-03  6.85389E-10  1.51821E-15  5.42162E+01 -1.30552E-07  1.0E-07
  3.250E-03  8.04380E-10  1.51821E-15  5.42162E+01 -1.41432E-07  1.0E-07
  3.500E-03  9.32891E-10  1.51821E-15  5.42162E+01 -1.52311E-07  1.0E-07
  3.750E-03  1.07092E-09  1.51821E-15  5.42162E+01 -1.63191E-07  1.0E-07
  4.000E-03  1.21847E-09  1.51821E-15  5.42161E+01 -1.74070E-07  1.0E-07
  4.250E-03  1.37554E-09  1.51821E-15  5.42161E+01 -1.84949E-07  1.0E-07
  4.500E-03  1.54213E-09  1.51821E-15  5.42161E+01 -1.95829E-07  1.0E-07
  4.750E-03  1.71823E-09  1.51821E-15  5.42161E+01 -2.06708E-07  1.0E-07
  5.000E-03  1.90386E-09  1.51821E-15  5.42161E+01 -2.17587E-07  1.0E-07
  5.250E-03  2.09900E-09  1.51821E-15  5.42161E+01 -2.28467E-07  1.0E-07
  5.500E-03  2.30367E-09  1.51821E-15  5.42161E+01 -2.39346E-07  1.0E-07
  5.750E-03  2.51785E-09  1.51821E-15  5.42161E+01 -2.50226E-07  1.0E-07
  6.000E-03  2.74156E-09  1.51821E-15  5.42161E+01 -2.61105E-07  1.0E-07
  6.250E-03  2.97478E-09  1.51821E-15  5.42161E+01 -2.71984E-07  1.0E-07
  6.500E-03  3.21752E-09  1.51821E-15  5.42161E+01 -2.82864E-07  1.0E-07
  6.750E-03  3.46978E-09  1.51821E-15  5.42161E+01 -2.93743E-07  1.0E-07
  7.000E-03  3.73156E-09  1.51821E-15  5.42161E+01 -3.04622E-07  1.0E-07
  7.250E-03  4.00286E-09  1.51821E-15  5.42161E+01 -3.15502E-07  1.0E-07
  7.500E-03  4.28368E-09  1.51821E-15  5.42161E+01 -3.26381E-07  1.0E-07
  7.750E-03  4.57402E-09  1.51820E-15  5.42161E+01 -3.37261E-07  1.0E-07
  8.000E-03  4.87388E-09  1.51820E-15  5.42161E+01 -3.48140E-07  1.0E-07
  8.250E-03  5.18326E-09  1.51820E-15  5.42161E+01 -3.59019E-07  1.0E-07
  8.500E-03  5.50215E-09  1.51820E-15  5.42161E+01 -3.69899E-07  1.0E-07
  8.750E-03  5.83057E-09  1.51820E-15  5.42161E+01 -3.80778E-07  1.0E-07
  9.000E-03  6.16850E-09  1.51820E-15  5.42161E+01 -3.91658E-07  1.0E-07
  9.250E-03  6.51596E-09  1.51820E-15  5.42160E+01 -4.02537E-07  1.0E-07
  9.500E-03  6.87293E-09  1.51820E-15  5.42160E+01 -4.13416E-07  1.0E-07
  9.750E-03  7.23942E-09  1.51820E-15  5.42160E+01 -4.24296E-07  1.0E-07
  1.000E-02  7.61544E-09  1.51820E-15  5.42160E+01 -4.35175E-07  1.0E-07
  1.250E-02  1.18991E-08  1.51820E-15  5.42159E+01 -5.43970E-07  1.0E-07
  1.500E-02  1.71347E-08  1.51820E-15  5.42158E+01 -6.52764E-07  1.0E-07
  1.750E-02  2.33223E-08  1.51819E-15  5.42157E+01 -7.61559E-07  1.0E-07
  2.000E-02  3.04617E-08  1.51819E-15  5.42156E+01 -8.70355E-07  1.0E-07
  2.250E-02  3.85531E-08  1.51819E-15  5.42154E+01 -9.79151E-07  1.0E-07
  2.500E-02  4.75965E-08  1.51818E-15  5.42152E+01 -1.08795E-06  1.0E-07
  2.750E-02  5.75917E-08  1.51818E-15  5.42150E+01 -1.19675E-06  1.0E-07
  3.000E-02  6.85389E-08  1.51817E-15  5.42148E+01 -1.30554E-06  1.0E-07
  3.250E-02  8.04380E-08  1.51816E-15  5.42146E+01 -1.41434E-06  1.0E-07
  3.500E-02  9.32891E-08  1.51816E-15  5.42143E+01 -1.52314E-06  1.0E-07
  3.750E-02  1.07092E-07  1.51815E-15  5.42140E+01 -1.63194E-06  1.0E-07
  4.000E-02  1.21847E-07  1.51814E-15  5.42137E+01 -1.74075E-06  1.0E-07
  4.250E-02  1.37554E-07  1.51813E-15  5.42134E+01 -1.84955E-06  1.0E-07
  4.500E-02  1.54213E-07  1.51812E-15  5.42131E+01 -1.95835E-06  1.0E-07
  4.750E-02  1.71823E-07  1.51811E-15  5.42127E+01 -2.06716E-06  1.0E-07
  5.000E-02  1.90386E-07  1.51810E-15  5.42124E+01 -2.17596E-06  1.0E-07
  5.250E-02  2.09900E-07  1.51809E-15  5.42120E+01 -2.28477E-06  1.0E-07
  5.500E-02  2.30367E-07  1.51808E-15  5.42116E+01 -2.39358E-06  1.0E-07
  5.750E-02  2.51785E-07  1.51807E-15  5.42111E+01 -2.50239E-06  1.0E-07
  6.000E-02  2.74156E-07  1.51805E-15  5.42107E+01 -2.61121E-06  1.0E-07
  6.250E-02  2.97478E-07  1.51804E-15  5.42102E+01 -2.72002E-06  1.0E-07
  6.500E-02  3.21752E-07  1.51803E-15  5.42097E+01 -2.82884E-06  1.0E-07
  6.750E-02  3.46978E-07  1.51801E-15  5.42092E+01 -2.93765E-06  1.0E-07
  7.000E-02  3.73156E-07  1.51800E-15  5.42087E+01 -3.04647E-06  1.0E-07
  7.250E-02  4.00286E-07  1.51798E-15  5.42081E+01 -3.15529E-06  1.0E-07
  7.500E-02  4.28368E-07  1.51797E-15  5.42076E+01 -3.26412E-06  1.0E-07
  7.750E-02  4.57402E-07  1.51795E-15  5.42070E+01 -3.37294E-06  1.0E-07
  8.000E-02  4.87388E-07  1.51793E-15  5.42064E+01 -3.48177E-06  1.0E-07
  8.250E-02  5.18325E-07  1.51792E-15  5.42058E+01 -3.59060E-06  1.0E-07
  8.500E-02  5.50215E-07  1.51790E-15  5.42051E+01 -3.69943E-06  1.0E-07
  8.750E-02  5.83057E-07  1.51788E-15  5.42045E+01 -3.80827E-06  1.0E-07
  9.000E-02  6.16850E-07  1.51786E-15  5.42038E+01 -3.91710E-06  1.0E-07
  9.250E-02  6.51596E-07  1.51784E-15  5.42031E+01 -4.02594E-06  1.0E-07
  9.500E-02  6.87293E-07  1.51782E-15  5.42024E+01 -4.13479E-06  1.0E-07
  9.750E-02  7.23942E-07  1.51780E-15  5.42017E+01 -4.24363E-06  1.0E-07
  1.000E-01  7.61543E-07  1.51778E-15  5.42009E+01 -4.35248E-06  1.0E-07
  1.250E-01  1.18991E-06  1.51754E-15  5.41923E+01 -5.44111E-06  1.0E-07
  1.500E-01  1.71347E-06  1.51725E-15  5.41818E+01 -6.53009E-06  1.0E-07
  1.750E-01  2.33223E-06  1.51690E-15  5.41694E+01 -7.61948E-06  1.0E-07
  2.000E-01  3.04617E-06  1.51650E-15  5.41552E+01 -8.70934E-06  1.0E-07
  2.250E-01  3.85531E-06  1.51605E-15  5.41390E+01 -9.79976E-06  1.0E-07
  2.500E-01  4.75964E-06  1.51554E-15  5.41209E+01 -1.08908E-05  1.0E-07
  2.750E-01  5.75916E-06  1.51498E-15  5.41010E+01 -1.19825E-05  1.0E-07
  3.000E-01  6.85388E-06  1.51437E-15  5.40791E+01 -1.30750E-05  1.0E-07
  3.250E-01  8.04378E-06  1.51371E-15  5.40554E+01 -1.41683E-05  1.0E-07
  3.500E-01  9.32888E-06  1.51299E-15  5.40299E+01 -1.52624E-05  1.0E-07
  3.750E-01  1.07092E-05  1.51222E-15  5.40025E+01 -1.63576E-05  1.0E-07
  4.000E-01  1.21846E-05  1.51140E-15  5.39732E+01 -1.74537E-05  1.0E-07
  4.250E-01  1.37553E-05  1.51053E-15  5.39421E+01 -1.85510E-05  1.0E-07
  4.500E-01  1.54212E-05  1.50961E-15  5.39091E+01 -1.96494E-05  1.0E-07
  4.750E-01  1.71822E-05  1.50864E-15  5.38744E+01 -2.07490E-05  1.0E-07
  5.000E-01  1.90385E-05  1.50761E-15  5.38378E+01 -2.18499E-05  1.0E-07
  5.250E-01  2.09899E-05  1.50654E-15  5.37994E+01 -2.29521E-05  1.0E-07
  5.500E-01  2.30365E-05  1.50541E-15  5.37592E+01 -2.40558E-05  1.0E-07
  5.750E-01  2.51783E-05  1.50424E-15  5.37173E+01 -2.51610E-05  1.0E-07
  6.000E-01  2.74153E-05  1.50301E-15  5.36735E+01 -2.62677E-05  1.0E-07
  6.250E-01  2.97475E-05  1.50174E-15  5.36280E+01 -2.73760E-05  1.0E-07
  6.500E-01  3.21749E-05  1.50042E-15  5.35808E+01 -2.84861E-05  1.0E-07
  6.750E-01  3.46974E-05  1.49904E-15  5.35318E+01 -2.95978E-05  1.0E-07
  7.000E-01  3.73152E-05  1.49762E-15  5.34811E+01 -3.07114E-05  1.0E-07
  7.250E-01  4.00281E-05  1.49616E-15  5.34287E+01 -3.18268E-05  1.0E-07
  7.500E-01  4.28362E-05  1.49464E-15  5.33747E+01 -3.29442E-05  1.0E-07
  7.750E-01  4.57395E-05  1.49308E-15  5.33189E+01 -3.40636E-05  1.0E-07
  8.000E-01  4.87380E-05  1.49147E-15  5.32615E+01 -3.51850E-05  1.0E-07
  8.250E-01  5.18317E-05  1.48982E-15  5.32024E+01 -3.63086E-05  1.0E-07
  8.500E-01  5.50205E-05  1.48812E-15  5.31417E+01 -3.74343E-05  1.0E-07
  8.750E-01  5.83045E-05  1.48637E-15  5.30794E+01 -3.85623E-05  1.0E-07
  9.000E-01  6.16838E-05  1.48458E-15  5.30154E+01 -3.96926E-05  1.0E-07
  9.250E-01  6.51582E-05  1.48275E-15  5.29499E+01 -4.08252E-05  1.0E-07
  9.500E-01  6.87277E-05  1.48087E-15  5.28829E+01 -4.19603E-05  1.0E-07
  9.750E-01  7.23925E-05  1.47895E-15  5.28143E+01 -4.30979E-05  1.0E-07
  1.000E+00  7.61524E-05  1.47699E-15  5.27441E+01 -4.42380E-05  1.0E-07
  1.100E+00  9.21439E-05  1.46871E-15  5.24486E+01 -4.88250E-05  1.0E-07
  1.200E+00  1.09658E-04  1.45979E-15  5.21302E+01 -5.34573E-05  1.0E-07
  1.300E+00  1.28695E-04  1.45027E-15  5.17901E+01 -5.81383E-05  1.0E-07
  1.400E+00  1.49255E-04  1.44018E-15  5.14296E+01 -6.28714E-05  1.0E-07
  1.500E+00  1.71338E-04  1.42955E-15  5.10503E+01 -6.76597E-05  1.0E-07
  1.600E+00  1.94942E-04  1.41844E-15  5.06534E+01 -7.25062E-05  1.0E-07
  1.700E+00  2.20070E-04  1.40687E-15  5.02404E+01 -7.74137E-05  1.0E-07
  1.800E+00  2.46720E-04  1.39490E-15  4.98128E+01 -8.23849E-05  1.0E-07
  1.900E+00  2.74892E-04  1.38256E-15  4.93721E+01 -8.74220E-05  1.0E-07
  2.000E+00  3.04586E-04  1.36989E-15  4.89197E+01 -9.25274E-05  1.0E-07
  2.100E+00  3.35803E-04  1.35694E-15  4.84571E+01 -9.77029E-05  1.0E-07
  2.200E+00  3.68542E-04  1.34373E-15  4.79856E+01 -1.02950E-04  1.0E-07
  2.300E+00  4.02802E-04  1.33032E-15  4.75066E+01 -1.08271E-04  1.0E-07
  2.400E+00  4.38585E-04  1.31674E-15  4.70215E+01 -1.13667E-04  1.0E-07
  2.500E+00  4.75889E-04  1.30302E-15  4.65316E+01 -1.19139E-04  1.0E-07
  2.600E+00  5.14715E-04  1.28920E-15  4.60380E+01 -1.24688E-04  1.0E-07
  2.700E+00  5.55063E-04  1.27530E-15  4.55420E+01 -1.30314E-04  1.0E-07
  2.800E+00  5.96931E-04  1.26138E-15  4.50446E+01 -1.36019E-04  1.0E-07
  2.900E+00  6.40321E-04  1.24744E-15  4.45468E+01 -1.41802E-04  1.0E-07
  3.000E+00  6.85233E-04  1.23352E-15  4.40497E+01 -1.47663E-04  1.0E-07
  3.100E+00  7.31665E-04  1.21964E-15  4.35540E+01 -1.53604E-04  1.0E-07
  3.200E+00  7.79618E-04  1.20582E-15  4.30607E+01 -1.59623E-04  1.0E-07
  3.300E+00  8.29092E-04  1.19209E-15  4.25703E+01 -1.65720E-04  1.0E-07
  3.400E+00  8.80086E-04  1.17846E-15  4.20836E+01 -1.71896E-04  1.0E-07
  3.500E+00  9.32601E-04  1.16495E-15  4.16011E+01 -1.78150E-04  1.0E-07
  3.600E+00  9.86636E-04  1.15157E-15  4.11233E+01 -1.84480E-04  1.0E-07
  3.700E+00  1.04219E-03  1.13833E-15  4.06506E+01 -1.90888E-04  1.0E-07
  3.800E+00  1.09927E-03  1.12525E-15  4.01834E+01 -1.97371E-04  1.0E-07
  3.900E+00  1.15786E-03  1.11233E-15  3.97220E+01 -2.03931E-04  1.0E-07
  4.000E+00  1.21797E-03  1.09958E-15  3.92666E+01 -2.10565E-04  1.0E-07
  4.100E+00  1.27961E-03  1.08700E-15  3.88173E+01 -2.17275E-04  1.0E-07
  4.200E+00  1.34276E-03  1.07459E-15  3.83743E+01 -2.24058E-04  1.0E-07
  4.300E+00  1.40743E-03  1.06236E-15  3.79376E+01 -2.30916E-04  1.0E-07
  4.400E+00  1.47362E-03  1.05031E-15  3.75072E+01 -2.37847E-04  1.0E-07
  4.500E+00  1.54133E-03  1.03843E-15  3.70831E+01 -2.44851E-04  1.0E-07
  4.600E+00  1.61056E-03  1.02673E-15  3.66652E+01 -2.51929E-04  1.0E-07
  4.700E+00  1.68131E-03  1.01520E-15  3.62534E+01 -2.59081E-04  1.0E-07
  4.800E+00  1.75357E-03  1.00384E-15  3.58476E+01 -2.66306E-04  1.0E-07
  4.900E+00  1.82735E-03  9.92635E-16  3.54476E+01 -2.73605E-04  1.0E-07
  5.000E+00  1.90265E-03  9.81592E-16  3.50533E+01 -2.80978E-04  1.0E-07
  5.100E+00  1.97947E-03  9.70702E-16  3.46644E+01 -2.88427E-04  1.0E-07
  5.200E+00  2.05780E-03  9.59958E-16  3.42807E+01 -2.95951E-04  1.0E-07
  5.300E+00  2.13765E-03  9.49355E-16  3.39021E+01 -3.03552E-04  1.0E-07
  5.400E+00  2.21902E-03  9.38887E-16  3.35283E+01 -3.11230E-04  1.0E-07
  5.500E+00  2.30190E-03  9.28548E-16  3.31590E+01 -3.18986E-04  1.0E-07
  5.600E+00  2.38630E-03  9.18331E-16  3.27942E+01 -3.26823E-04  1.0E-07
  5.700E+00  2.47222E-03  9.08231E-16  3.24335E+01 -3.34740E-04  1.0E-07
  5.800E+00  2.55965E-03  8.98242E-16  3.20768E+01 -3.42740E-04  1.0E-07
  5.900E+00  2.64859E-03  8.88358E-16  3.17239E+01 -3.50823E-04  1.0E-07
  6.000E+00  2.73905E-03  8.78575E-16  3.13745E+01 -3.58991E-04  1.0E-07
  6.100E+00  2.83103E-03  8.68888E-16  3.10286E+01 -3.67247E-04  1.0E-07
  6.200E+00  2.92452E-03  8.59293E-16  3.06859E+01 -3.75590E-04  1.0E-07
  6.300E+00  3.01952E-03  8.49785E-16  3.03464E+01 -3.84023E-04  1.0E-07
  6.400E+00  3.11604E-03  8.40361E-16  3.00098E+01 -3.92547E-04  1.0E-07
  6.500E+00  3.21407E-03  8.31018E-16  2.96762E+01 -4.01163E-04  1.0E-07
  6.600E+00  3.31362E-03  8.21753E-16  2.93453E+01 -4.09874E-04  1.0E-07
  6.700E+00  3.41468E-03  8.12565E-16  2.90172E+01 -4.18680E-04  1.0E-07
  6.800E+00  3.51725E-03  8.03452E-16  2.86918E+01 -4.27583E-04  1.0E-07
  6.900E+00  3.62133E-03  7.94412E-16  2.83690E+01 -4.36583E-04  1.0E-07
  7.000E+00  3.72692E-03  7.85445E-16  2.80487E+01 -4.45683E-04  1.0E-07
  7.100E+00  3.83403E-03  7.76550E-16  2.77311E+01 -4.54882E-04  1.0E-07
  7.200E+00  3.94265E-03  7.67727E-16  2.74160E+01 -4.64182E-04  1.0E-07
  7.300E+00  4.05278E-03  7.58977E-16  2.71036E+01 -4.73583E-04  1.0E-07
  7.400E+00  4.16442E-03  7.50299E-16  2.67937E+01 -4.83087E-04  1.0E-07
  7.500E+00  4.27757E-03  7.41695E-16  2.64864E+01 -4.92694E-04  1.0E-07
  7.600E+00  4.39223E-03  7.33165E-16  2.61818E+01 -5.02403E-04  1.0E-07
  7.700E+00  4.50840E-03  7.24711E-16  2.58799E+01 -5.12215E-04  1.0E-07
  7.800E+00  4.62608E-03  7.16334E-16  2.55808E+01 -5.22131E-04  1.0E-07
  7.900E+00  4.74527E-03  7.08035E-16  2.52844E+01 -5.32150E-04  1.0E-07
  8.000E+00  4.86597E-03  6.99816E-16  2.49909E+01 -5.42272E-04  1.0E-07
  8.100E+00  4.98817E-03  6.91677E-16  2.47002E+01 -5.52496E-04  1.0E-07
  8.200E+00  5.11188E-03  6.83620E-16  2.44125E+01 -5.62823E-04  1.0E-07
  8.300E+00  5.23711E-03  6.75648E-16  2.41278E+01 -5.73252E-04  1.0E-07
  8.400E+00  5.36383E-03  6.67759E-16  2.38461E+01 -5.83783E-04  1.0E-07
  8.500E+00  5.49207E-03  6.59957E-16  2.35675E+01 -5.94414E-04  1.0E-07
  8.600E+00  5.62181E-03  6.52241E-16  2.32920E+01 -6.05145E-04  1.0E-07
  8.700E+00  5.75306E-03  6.44614E-16  2.30196E+01 -6.15975E-04  1.0E-07
  8.800E+00  5.88581E-03  6.37074E-16  2.27503E+01 -6.26904E-04  1.0E-07
  8.900E+00  6.02007E-03  6.29624E-16  2.24843E+01 -6.37931E-04  1.0E-07
  9.000E+00  6.15583E-03  6.22263E-16  2.22214E+01 -6.49054E-04  1.0E-07
  9.100E+00  6.29310E-03  6.14992E-16  2.19617E+01 -6.60274E-04  1.0E-07
  9.200E+00  6.43187E-03  6.07810E-16  2.17053E+01 -6.71589E-04  1.0E-07
  9.300E+00  6.57214E-03  6.00717E-16  2.14520E+01 -6.82998E-04  1.0E-07
  9.400E+00  6.71392E-03  5.93713E-16  2.12019E+01 -6.94501E-04  1.0E-07
  9.500E+00  6.85720E-03  5.86798E-16  2.09550E+01 -7.06097E-04  1.0E-07
  9.600E+00  7.00198E-03  5.79971E-16  2.07111E+01 -7.17785E-04  1.0E-07
  9.700E+00  7.14827E-03  5.73231E-16  2.04704E+01 -7.29565E-04  1.0E-07
  9.800E+00  7.29605E-03  5.66577E-16  2.02328E+01 -7.41436E-04  1.0E-07
  9.900E+00  7.44534E-03  5.60008E-16  1.99982E+01 -7.53398E-04  1.0E-07
  1.000E+01  7.59612E-03  5.53523E-16  1.97666E+01 -7.65449E-04  1.0E-07
  1.025E+01  7.97965E-03  5.37668E-16  1.92005E+01 -7.95968E-04  1.0E-07
  1.050E+01  8.37255E-03  5.22309E-16  1.86520E+01 -8.27037E-04  1.0E-07
  1.075E+01  8.77480E-03  5.07424E-16  1.81204E+01 -8.58652E-04  1.0E-07
  1.100E+01  9.18641E-03  4.92991E-16  1.76050E+01 -8.90802E-04  1.0E-07
  1.125E+01  9.60736E-03  4.78990E-16  1.71050E+01 -9.23478E-04  1.0E-07
  1.150E+01  1.00376E-02  4.65404E-16  1.66199E+01 -9.56665E-04  1.0E-07
  1.175E+01  1.04773E-02  4.52220E-16  1.61491E+01 -9.90343E-04  1.0E-07
  1.200E+01  1.09262E-02  4.39428E-16  1.56923E+01 -1.02449E-03  1.0E-07
  1.225E+01  1.13844E-02  4.27020E-16  1.52491E+01 -1.05906E-03  1.0E-07
  1.250E+01  1.18520E-02  4.14991E-16  1.48196E+01 -1.09403E-03  1.0E-07
  1.275E+01  1.23288E-02  4.03339E-16  1.44035E+01 -1.12934E-03  1.0E-07
  1.300E+01  1.28150E-02  3.92064E-16  1.40009E+01 -1.16493E-03  1.0E-07
  1.325E+01  1.33104E-02  3.81165E-16  1.36116E+01 -1.20074E-03  1.0E-07
  1.350E+01  1.38150E-02  3.70639E-16  1.32358E+01 -1.23671E-03  1.0E-07
  1.375E+01  1.43290E-02  3.60487E-16  1.28732E+01 -1.27276E-03  1.0E-07
  1.400E+01  1.48521E-02  3.50704E-16  1.25239E+01 -1.30880E-03  1.0E-07
