 #
 # Subroutine ELSEPA. Elastic scattering of electrons and positrons
 #                    by neutral atoms and positive ions
 #
 # Projectile: electron
 # Kinetic energy = 1.10000E+01 eV = 4.04243E-01 a.u.
 #
 #  ***  WARNING: Energy is too low.
 #                The reliability of the results is questionable.
 #
 # Element: Si,  Z =  14,  atomic weight = 2.80855E+01 g/mol
 #
 # Nuclear model: Fermi distribution
 #                Average radius = 3.25245E-13 cm
 #                Skin thickness = 5.46000E-14 cm
 #
 # Number of electrons = 14
 #
 # Electron density: analytical TFM model
 #                   A1 =  1.00000D-01 ,   ALPHA1 = 1.63337D+01
 #                   A2 =  5.50000D-01 ,   ALPHA2 = 3.26673D+00
 #                   A3 =  3.50000D-01 ,   ALPHA3 = 8.16684D-01
 #                   Volume integral = 1.40000E+01
 #
 # Furness-McCarthy exchange potential
 #
 # Correlation-polarization potential (Buckingham):
 #                           Alpha = 5.38000E-24 cm**3
 #                            Bpol = 1.00000E+00
 #
 # Total elastic cross section = 2.11745E-15 cm**2 = 7.56156E+01 a0**2
 # 1st transport cross section = 8.43387E-16 cm**2 = 3.01179E+01 a0**2
 # 2nd transport cross section = 1.17970E-15 cm**2 = 4.21277E+01 a0**2
 #
 #
 # Differential cross section:                       MU=(1-COS(THETA))/2
 #
 #  THETA        MU          DCS          DCS        Sherman      error
 #  (deg)                 (cm**2/sr)   (a0**2/sr)    function
 #----------------------------------------------------------------------
  0.000E+00  0.00000E+00  5.73395E-15  2.04763E+02  0.00000E+00  1.0E-07
  1.000E-04  7.61557E-13  5.73395E-15  2.04763E+02  1.22033E-10  1.0E-07
  1.250E-04  1.18994E-12  5.73395E-15  2.04763E+02  1.52541E-10  1.0E-07
  1.500E-04  1.71346E-12  5.73395E-15  2.04763E+02  1.83049E-10  1.0E-07
  1.750E-04  2.33225E-12  5.73395E-15  2.04763E+02  2.13558E-10  1.0E-07
  2.000E-04  3.04617E-12  5.73395E-15  2.04763E+02  2.44066E-10  1.0E-07
  2.250E-04  3.85530E-12  5.73395E-15  2.04763E+02  2.74574E-10  1.0E-07
  2.500E-04  4.75964E-12  5.73395E-15  2.04763E+02  3.05082E-10  1.0E-07
  2.750E-04  5.75917E-12  5.73395E-15  2.04763E+02  3.35591E-10  1.0E-07
  3.000E-04  6.85391E-12  5.73395E-15  2.04763E+02  3.66099E-10  1.0E-07
  3.250E-04  8.04379E-12  5.73395E-15  2.04763E+02  3.96607E-10  1.0E-07
  3.500E-04  9.32893E-12  5.73395E-15  2.04763E+02  4.27115E-10  1.0E-07
  3.750E-04  1.07092E-11  5.73395E-15  2.04763E+02  4.57624E-10  1.0E-07
  4.000E-04  1.21847E-11  5.73395E-15  2.04763E+02  4.88132E-10  1.0E-07
  4.250E-04  1.37554E-11  5.73395E-15  2.04763E+02  5.18640E-10  1.0E-07
  4.500E-04  1.54213E-11  5.73395E-15  2.04763E+02  5.49148E-10  1.0E-07
  4.750E-04  1.71823E-11  5.73395E-15  2.04763E+02  5.79657E-10  1.0E-07
  5.000E-04  1.90386E-11  5.73395E-15  2.04763E+02  6.10165E-10  1.0E-07
  5.250E-04  2.09900E-11  5.73395E-15  2.04763E+02  6.40673E-10  1.0E-07
  5.500E-04  2.30367E-11  5.73395E-15  2.04763E+02  6.71181E-10  1.0E-07
  5.750E-04  2.51785E-11  5.73395E-15  2.04763E+02  7.01690E-10  1.0E-07
  6.000E-04  2.74156E-11  5.73395E-15  2.04763E+02  7.32198E-10  1.0E-07
  6.250E-04  2.97478E-11  5.73395E-15  2.04763E+02  7.62706E-10  1.0E-07
  6.500E-04  3.21752E-11  5.73395E-15  2.04763E+02  7.93214E-10  1.0E-07
  6.750E-04  3.46979E-11  5.73395E-15  2.04763E+02  8.23723E-10  1.0E-07
  7.000E-04  3.73157E-11  5.73395E-15  2.04763E+02  8.54231E-10  1.0E-07
  7.250E-04  4.00286E-11  5.73395E-15  2.04763E+02  8.84739E-10  1.0E-07
  7.500E-04  4.28368E-11  5.73395E-15  2.04763E+02  9.15247E-10  1.0E-07
  7.750E-04  4.57402E-11  5.73395E-15  2.04763E+02  9.45756E-10  1.0E-07
  8.000E-04  4.87388E-11  5.73395E-15  2.04763E+02  9.76264E-10  1.0E-07
  8.250E-04  5.18325E-11  5.73395E-15  2.04763E+02  1.00677E-09  1.0E-07
  8.500E-04  5.50215E-11  5.73395E-15  2.04763E+02  1.03728E-09  1.0E-07
  8.750E-04  5.83057E-11  5.73395E-15  2.04763E+02  1.06779E-09  1.0E-07
  9.000E-04  6.16850E-11  5.73395E-15  2.04763E+02  1.09830E-09  1.0E-07
  9.250E-04  6.51595E-11  5.73395E-15  2.04763E+02  1.12881E-09  1.0E-07
  9.500E-04  6.87293E-11  5.73395E-15  2.04763E+02  1.15931E-09  1.0E-07
  9.750E-04  7.23943E-11  5.73395E-15  2.04763E+02  1.18982E-09  1.0E-07
  1.000E-03  7.61544E-11  5.73395E-15  2.04763E+02  1.22033E-09  1.0E-07
  1.250E-03  1.18991E-10  5.73395E-15  2.04763E+02  1.52541E-09  1.0E-07
  1.500E-03  1.71347E-10  5.73395E-15  2.04763E+02  1.83049E-09  1.0E-07
  1.750E-03  2.33223E-10  5.73395E-15  2.04763E+02  2.13558E-09  1.0E-07
  2.000E-03  3.04617E-10  5.73395E-15  2.04763E+02  2.44066E-09  1.0E-07
  2.250E-03  3.85531E-10  5.73395E-15  2.04763E+02  2.74574E-09  1.0E-07
  2.500E-03  4.75965E-10  5.73395E-15  2.04763E+02  3.05082E-09  1.0E-07
  2.750E-03  5.75917E-10  5.73395E-15  2.04763E+02  3.35591E-09  1.0E-07
  3.000E-03  6.85389E-10  5.73395E-15  2.04763E+02  3.66099E-09  1.0E-07
  3.250E-03  8.04380E-10  5.73395E-15  2.04763E+02  3.96607E-09  1.0E-07
  3.500E-03  9.32891E-10  5.73395E-15  2.04763E+02  4.27115E-09  1.0E-07
  3.750E-03  1.07092E-09  5.73395E-15  2.04763E+02  4.57623E-09  1.0E-07
  4.000E-03  1.21847E-09  5.73395E-15  2.04763E+02  4.88131E-09  1.0E-07
  4.250E-03  1.37554E-09  5.73395E-15  2.04763E+02  5.18640E-09  1.0E-07
  4.500E-03  1.54213E-09  5.73395E-15  2.04763E+02  5.49148E-09  1.0E-07
  4.750E-03  1.71823E-09  5.73395E-15  2.04763E+02  5.79656E-09  1.0E-07
  5.000E-03  1.90386E-09  5.73395E-15  2.04763E+02  6.10164E-09  1.0E-07
  5.250E-03  2.09900E-09  5.73395E-15  2.04763E+02  6.40672E-09  1.0E-07
  5.500E-03  2.30367E-09  5.73395E-15  2.04763E+02  6.71180E-09  1.0E-07
  5.750E-03  2.51785E-09  5.73394E-15  2.04763E+02  7.01688E-09  1.0E-07
  6.000E-03  2.74156E-09  5.73394E-15  2.04763E+02  7.32196E-09  1.0E-07
  6.250E-03  2.97478E-09  5.73394E-15  2.04763E+02  7.62704E-09  1.0E-07
  6.500E-03  3.21752E-09  5.73394E-15  2.04763E+02  7.93212E-09  1.0E-07
  6.750E-03  3.46978E-09  5.73394E-15  2.04763E+02  8.23720E-09  1.0E-07
  7.000E-03  3.73156E-09  5.73394E-15  2.04763E+02  8.54228E-09  1.0E-07
  7.250E-03  4.00286E-09  5.73394E-15  2.04763E+02  8.84736E-09  1.0E-07
  7.500E-03  4.28368E-09  5.73394E-15  2.04763E+02  9.15244E-09  1.0E-07
  7.750E-03  4.57402E-09  5.73394E-15  2.04763E+02  9.45752E-09  1.0E-07
  8.000E-03  4.87388E-09  5.73394E-15  2.04763E+02  9.76260E-09  1.0E-07
  8.250E-03  5.18326E-09  5.73394E-15  2.04763E+02  1.00677E-08  1.0E-07
  8.500E-03  5.50215E-09  5.73394E-15  2.04763E+02  1.03728E-08  1.0E-07
  8.750E-03  5.83057E-09  5.73394E-15  2.04763E+02  1.06778E-08  1.0E-07
  9.000E-03  6.16850E-09  5.73394E-15  2.04763E+02  1.09829E-08  1.0E-07
  9.250E-03  6.51596E-09  5.73394E-15  2.04763E+02  1.12880E-08  1.0E-07
  9.500E-03  6.87293E-09  5.73394E-15  2.04763E+02  1.15931E-08  1.0E-07
  9.750E-03  7.23942E-09  5.73394E-15  2.04763E+02  1.18981E-08  1.0E-07
  1.000E-02  7.61544E-09  5.73394E-15  2.04763E+02  1.22032E-08  1.0E-07
  1.250E-02  1.18991E-08  5.73393E-15  2.04762E+02  1.52540E-08  1.0E-07
  1.500E-02  1.71347E-08  5.73392E-15  2.04762E+02  1.83047E-08  1.0E-07
  1.750E-02  2.33223E-08  5.73392E-15  2.04762E+02  2.13554E-08  1.0E-07
  2.000E-02  3.04617E-08  5.73391E-15  2.04762E+02  2.44060E-08  1.0E-07
  2.250E-02  3.85531E-08  5.73390E-15  2.04761E+02  2.74565E-08  1.0E-07
  2.500E-02  4.75965E-08  5.73388E-15  2.04761E+02  3.05070E-08  1.0E-07
  2.750E-02  5.75917E-08  5.73387E-15  2.04760E+02  3.35575E-08  1.0E-07
  3.000E-02  6.85389E-08  5.73385E-15  2.04760E+02  3.66078E-08  1.0E-07
  3.250E-02  8.04380E-08  5.73384E-15  2.04759E+02  3.96581E-08  1.0E-07
  3.500E-02  9.32891E-08  5.73382E-15  2.04758E+02  4.27082E-08  1.0E-07
  3.750E-02  1.07092E-07  5.73380E-15  2.04758E+02  4.57583E-08  1.0E-07
  4.000E-02  1.21847E-07  5.73378E-15  2.04757E+02  4.88082E-08  1.0E-07
  4.250E-02  1.37554E-07  5.73376E-15  2.04756E+02  5.18581E-08  1.0E-07
  4.500E-02  1.54213E-07  5.73374E-15  2.04756E+02  5.49078E-08  1.0E-07
  4.750E-02  1.71823E-07  5.73371E-15  2.04755E+02  5.79574E-08  1.0E-07
  5.000E-02  1.90386E-07  5.73369E-15  2.04754E+02  6.10068E-08  1.0E-07
  5.250E-02  2.09900E-07  5.73366E-15  2.04753E+02  6.40561E-08  1.0E-07
  5.500E-02  2.30367E-07  5.73363E-15  2.04752E+02  6.71052E-08  1.0E-07
  5.750E-02  2.51785E-07  5.73361E-15  2.04751E+02  7.01542E-08  1.0E-07
  6.000E-02  2.74156E-07  5.73358E-15  2.04750E+02  7.32030E-08  1.0E-07
  6.250E-02  2.97478E-07  5.73354E-15  2.04749E+02  7.62517E-08  1.0E-07
  6.500E-02  3.21752E-07  5.73351E-15  2.04747E+02  7.93001E-08  1.0E-07
  6.750E-02  3.46978E-07  5.73348E-15  2.04746E+02  8.23484E-08  1.0E-07
  7.000E-02  3.73156E-07  5.73344E-15  2.04745E+02  8.53965E-08  1.0E-07
  7.250E-02  4.00286E-07  5.73340E-15  2.04744E+02  8.84443E-08  1.0E-07
  7.500E-02  4.28368E-07  5.73337E-15  2.04742E+02  9.14920E-08  1.0E-07
  7.750E-02  4.57402E-07  5.73333E-15  2.04741E+02  9.45394E-08  1.0E-07
  8.000E-02  4.87388E-07  5.73329E-15  2.04739E+02  9.75867E-08  1.0E-07
  8.250E-02  5.18325E-07  5.73324E-15  2.04738E+02  1.00634E-07  1.0E-07
  8.500E-02  5.50215E-07  5.73320E-15  2.04736E+02  1.03680E-07  1.0E-07
  8.750E-02  5.83057E-07  5.73316E-15  2.04735E+02  1.06727E-07  1.0E-07
  9.000E-02  6.16850E-07  5.73311E-15  2.04733E+02  1.09773E-07  1.0E-07
  9.250E-02  6.51596E-07  5.73306E-15  2.04731E+02  1.12819E-07  1.0E-07
  9.500E-02  6.87293E-07  5.73301E-15  2.04730E+02  1.15865E-07  1.0E-07
  9.750E-02  7.23942E-07  5.73296E-15  2.04728E+02  1.18910E-07  1.0E-07
  1.000E-01  7.61543E-07  5.73291E-15  2.04726E+02  1.21955E-07  1.0E-07
  1.250E-01  1.18991E-06  5.73233E-15  2.04705E+02  1.52390E-07  1.0E-07
  1.500E-01  1.71347E-06  5.73162E-15  2.04680E+02  1.82788E-07  1.0E-07
  1.750E-01  2.33223E-06  5.73078E-15  2.04650E+02  2.13142E-07  1.0E-07
  2.000E-01  3.04617E-06  5.72981E-15  2.04615E+02  2.43446E-07  1.0E-07
  2.250E-01  3.85531E-06  5.72871E-15  2.04576E+02  2.73691E-07  1.0E-07
  2.500E-01  4.75964E-06  5.72749E-15  2.04532E+02  3.03871E-07  1.0E-07
  2.750E-01  5.75916E-06  5.72614E-15  2.04484E+02  3.33979E-07  1.0E-07
  3.000E-01  6.85388E-06  5.72466E-15  2.04431E+02  3.64007E-07  1.0E-07
  3.250E-01  8.04378E-06  5.72305E-15  2.04374E+02  3.93948E-07  1.0E-07
  3.500E-01  9.32888E-06  5.72132E-15  2.04312E+02  4.23796E-07  1.0E-07
  3.750E-01  1.07092E-05  5.71946E-15  2.04246E+02  4.53542E-07  1.0E-07
  4.000E-01  1.21846E-05  5.71747E-15  2.04175E+02  4.83180E-07  1.0E-07
  4.250E-01  1.37553E-05  5.71537E-15  2.04099E+02  5.12703E-07  1.0E-07
  4.500E-01  1.54212E-05  5.71313E-15  2.04020E+02  5.42104E-07  1.0E-07
  4.750E-01  1.71822E-05  5.71078E-15  2.03936E+02  5.71376E-07  1.0E-07
  5.000E-01  1.90385E-05  5.70830E-15  2.03847E+02  6.00511E-07  1.0E-07
  5.250E-01  2.09899E-05  5.70570E-15  2.03754E+02  6.29503E-07  1.0E-07
  5.500E-01  2.30365E-05  5.70298E-15  2.03657E+02  6.58345E-07  1.0E-07
  5.750E-01  2.51783E-05  5.70014E-15  2.03556E+02  6.87030E-07  1.0E-07
  6.000E-01  2.74153E-05  5.69718E-15  2.03450E+02  7.15552E-07  1.0E-07
  6.250E-01  2.97475E-05  5.69409E-15  2.03340E+02  7.43903E-07  1.0E-07
  6.500E-01  3.21749E-05  5.69090E-15  2.03226E+02  7.72077E-07  1.0E-07
  6.750E-01  3.46974E-05  5.68758E-15  2.03107E+02  8.00066E-07  1.0E-07
  7.000E-01  3.73152E-05  5.68415E-15  2.02985E+02  8.27865E-07  1.0E-07
  7.250E-01  4.00281E-05  5.68061E-15  2.02858E+02  8.55467E-07  1.0E-07
  7.500E-01  4.28362E-05  5.67695E-15  2.02727E+02  8.82865E-07  1.0E-07
  7.750E-01  4.57395E-05  5.67317E-15  2.02593E+02  9.10053E-07  1.0E-07
  8.000E-01  4.87380E-05  5.66929E-15  2.02454E+02  9.37024E-07  1.0E-07
  8.250E-01  5.18317E-05  5.66529E-15  2.02311E+02  9.63772E-07  1.0E-07
  8.500E-01  5.50205E-05  5.66119E-15  2.02165E+02  9.90290E-07  1.0E-07
  8.750E-01  5.83045E-05  5.65698E-15  2.02014E+02  1.01657E-06  1.0E-07
  9.000E-01  6.16838E-05  5.65266E-15  2.01860E+02  1.04261E-06  1.0E-07
  9.250E-01  6.51582E-05  5.64823E-15  2.01702E+02  1.06841E-06  1.0E-07
  9.500E-01  6.87277E-05  5.64370E-15  2.01540E+02  1.09394E-06  1.0E-07
  9.750E-01  7.23925E-05  5.63906E-15  2.01375E+02  1.11922E-06  1.0E-07
  1.000E+00  7.61524E-05  5.63433E-15  2.01205E+02  1.14423E-06  1.0E-07
  1.100E+00  9.21439E-05  5.61438E-15  2.00493E+02  1.24150E-06  1.0E-07
  1.200E+00  1.09658E-04  5.59290E-15  1.99726E+02  1.33405E-06  1.0E-07
  1.300E+00  1.28695E-04  5.56998E-15  1.98908E+02  1.42153E-06  1.0E-07
  1.400E+00  1.49255E-04  5.54571E-15  1.98041E+02  1.50362E-06  1.0E-07
  1.500E+00  1.71338E-04  5.52019E-15  1.97130E+02  1.58002E-06  1.0E-07
  1.600E+00  1.94942E-04  5.49352E-15  1.96177E+02  1.65043E-06  1.0E-07
  1.700E+00  2.20070E-04  5.46579E-15  1.95187E+02  1.71462E-06  1.0E-07
  1.800E+00  2.46720E-04  5.43711E-15  1.94163E+02  1.77233E-06  1.0E-07
  1.900E+00  2.74892E-04  5.40757E-15  1.93108E+02  1.82338E-06  1.0E-07
  2.000E+00  3.04586E-04  5.37727E-15  1.92026E+02  1.86758E-06  1.0E-07
  2.100E+00  3.35803E-04  5.34631E-15  1.90920E+02  1.90477E-06  1.0E-07
  2.200E+00  3.68542E-04  5.31478E-15  1.89794E+02  1.93482E-06  1.0E-07
  2.300E+00  4.02802E-04  5.28278E-15  1.88651E+02  1.95764E-06  1.0E-07
  2.400E+00  4.38585E-04  5.25037E-15  1.87494E+02  1.97315E-06  1.0E-07
  2.500E+00  4.75889E-04  5.21765E-15  1.86326E+02  1.98128E-06  1.0E-07
  2.600E+00  5.14715E-04  5.18469E-15  1.85149E+02  1.98202E-06  1.0E-07
  2.700E+00  5.55063E-04  5.15157E-15  1.83966E+02  1.97534E-06  1.0E-07
  2.800E+00  5.96931E-04  5.11834E-15  1.82779E+02  1.96125E-06  1.0E-07
  2.900E+00  6.40321E-04  5.08507E-15  1.81591E+02  1.93977E-06  1.0E-07
  3.000E+00  6.85233E-04  5.05181E-15  1.80404E+02  1.91094E-06  1.0E-07
  3.100E+00  7.31665E-04  5.01862E-15  1.79218E+02  1.87480E-06  1.0E-07
  3.200E+00  7.79618E-04  4.98552E-15  1.78036E+02  1.83141E-06  1.0E-07
  3.300E+00  8.29092E-04  4.95257E-15  1.76859E+02  1.78083E-06  1.0E-07
  3.400E+00  8.80086E-04  4.91978E-15  1.75689E+02  1.72311E-06  1.0E-07
  3.500E+00  9.32601E-04  4.88719E-15  1.74525E+02  1.65833E-06  1.0E-07
  3.600E+00  9.86636E-04  4.85481E-15  1.73369E+02  1.58653E-06  1.0E-07
  3.700E+00  1.04219E-03  4.82267E-15  1.72221E+02  1.50777E-06  1.0E-07
  3.800E+00  1.09927E-03  4.79077E-15  1.71081E+02  1.42210E-06  1.0E-07
  3.900E+00  1.15786E-03  4.75911E-15  1.69951E+02  1.32954E-06  1.0E-07
  4.000E+00  1.21797E-03  4.72771E-15  1.68830E+02  1.23011E-06  1.0E-07
  4.100E+00  1.27961E-03  4.69655E-15  1.67717E+02  1.12383E-06  1.0E-07
  4.200E+00  1.34276E-03  4.66564E-15  1.66613E+02  1.01067E-06  1.0E-07
  4.300E+00  1.40743E-03  4.63497E-15  1.65518E+02  8.90612E-07  1.0E-07
  4.400E+00  1.47362E-03  4.60452E-15  1.64431E+02  7.63603E-07  1.0E-07
  4.500E+00  1.54133E-03  4.57430E-15  1.63351E+02  6.29579E-07  1.0E-07
  4.600E+00  1.61056E-03  4.54427E-15  1.62279E+02  4.88453E-07  1.0E-07
  4.700E+00  1.68131E-03  4.51444E-15  1.61213E+02  3.40122E-07  1.0E-07
  4.800E+00  1.75357E-03  4.48477E-15  1.60154E+02  1.84464E-07  1.0E-07
  4.900E+00  1.82735E-03  4.45527E-15  1.59101E+02  0.00000E+00  1.0E-07
  5.000E+00  1.90265E-03  4.42591E-15  1.58052E+02 -1.49408E-07  1.0E-07
  5.100E+00  1.97947E-03  4.39668E-15  1.57008E+02 -3.27946E-07  1.0E-07
  5.200E+00  2.05780E-03  4.36756E-15  1.55969E+02 -5.14459E-07  1.0E-07
  5.300E+00  2.13765E-03  4.33855E-15  1.54932E+02 -7.09139E-07  1.0E-07
  5.400E+00  2.21902E-03  4.30961E-15  1.53899E+02 -9.12190E-07  1.0E-07
  5.500E+00  2.30190E-03  4.28075E-15  1.52869E+02 -1.12382E-06  1.0E-07
  5.600E+00  2.38630E-03  4.25196E-15  1.51840E+02 -1.34425E-06  1.0E-07
  5.700E+00  2.47222E-03  4.22322E-15  1.50814E+02 -1.57368E-06  1.0E-07
  5.800E+00  2.55965E-03  4.19452E-15  1.49789E+02 -1.81234E-06  1.0E-07
  5.900E+00  2.64859E-03  4.16587E-15  1.48766E+02 -2.06044E-06  1.0E-07
  6.000E+00  2.73905E-03  4.13725E-15  1.47744E+02 -2.31820E-06  1.0E-07
  6.100E+00  2.83103E-03  4.10866E-15  1.46723E+02 -2.58581E-06  1.0E-07
  6.200E+00  2.92452E-03  4.08010E-15  1.45703E+02 -2.86347E-06  1.0E-07
  6.300E+00  3.01952E-03  4.05157E-15  1.44684E+02 -3.15138E-06  1.0E-07
  6.400E+00  3.11604E-03  4.02307E-15  1.43666E+02 -3.44971E-06  1.0E-07
  6.500E+00  3.21407E-03  3.99460E-15  1.42650E+02 -3.75862E-06  1.0E-07
  6.600E+00  3.31362E-03  3.96617E-15  1.41635E+02 -4.07827E-06  1.0E-07
  6.700E+00  3.41468E-03  3.93778E-15  1.40621E+02 -4.40880E-06  1.0E-07
  6.800E+00  3.51725E-03  3.90943E-15  1.39608E+02 -4.75034E-06  1.0E-07
  6.900E+00  3.62133E-03  3.88113E-15  1.38598E+02 -5.10301E-06  1.0E-07
  7.000E+00  3.72692E-03  3.85289E-15  1.37589E+02 -5.46690E-06  1.0E-07
  7.100E+00  3.83403E-03  3.82471E-15  1.36583E+02 -5.84212E-06  1.0E-07
  7.200E+00  3.94265E-03  3.79660E-15  1.35579E+02 -6.22875E-06  1.0E-07
  7.300E+00  4.05278E-03  3.76857E-15  1.34578E+02 -6.62685E-06  1.0E-07
  7.400E+00  4.16442E-03  3.74062E-15  1.33580E+02 -7.03649E-06  1.0E-07
  7.500E+00  4.27757E-03  3.71276E-15  1.32585E+02 -7.45773E-06  1.0E-07
  7.600E+00  4.39223E-03  3.68500E-15  1.31594E+02 -7.89063E-06  1.0E-07
  7.700E+00  4.50840E-03  3.65733E-15  1.30606E+02 -8.33524E-06  1.0E-07
  7.800E+00  4.62608E-03  3.62978E-15  1.29622E+02 -8.79161E-06  1.0E-07
  7.900E+00  4.74527E-03  3.60234E-15  1.28642E+02 -9.25980E-06  1.0E-07
  8.000E+00  4.86597E-03  3.57501E-15  1.27666E+02 -9.73986E-06  1.0E-07
  8.100E+00  4.98817E-03  3.54781E-15  1.26695E+02 -1.02319E-05  1.0E-07
  8.200E+00  5.11188E-03  3.52073E-15  1.25728E+02 -1.07359E-05  1.0E-07
  8.300E+00  5.23711E-03  3.49377E-15  1.24765E+02 -1.12520E-05  1.0E-07
  8.400E+00  5.36383E-03  3.46694E-15  1.23807E+02 -1.17803E-05  1.0E-07
  8.500E+00  5.49207E-03  3.44024E-15  1.22853E+02 -1.23209E-05  1.0E-07
  8.600E+00  5.62181E-03  3.41367E-15  1.21904E+02 -1.28740E-05  1.0E-07
  8.700E+00  5.75306E-03  3.38722E-15  1.20960E+02 -1.34396E-05  1.0E-07
  8.800E+00  5.88581E-03  3.36090E-15  1.20020E+02 -1.40179E-05  1.0E-07
  8.900E+00  6.02007E-03  3.33470E-15  1.19084E+02 -1.46092E-05  1.0E-07
  9.000E+00  6.15583E-03  3.30863E-15  1.18153E+02 -1.52136E-05  1.0E-07
  9.100E+00  6.29310E-03  3.28267E-15  1.17226E+02 -1.58313E-05  1.0E-07
  9.200E+00  6.43187E-03  3.25683E-15  1.16304E+02 -1.64625E-05  1.0E-07
  9.300E+00  6.57214E-03  3.23111E-15  1.15385E+02 -1.71075E-05  1.0E-07
  9.400E+00  6.71392E-03  3.20549E-15  1.14470E+02 -1.77666E-05  1.0E-07
  9.500E+00  6.85720E-03  3.17999E-15  1.13559E+02 -1.84401E-05  1.0E-07
  9.600E+00  7.00198E-03  3.15459E-15  1.12652E+02 -1.91281E-05  1.0E-07
  9.700E+00  7.14827E-03  3.12929E-15  1.11749E+02 -1.98311E-05  1.0E-07
  9.800E+00  7.29605E-03  3.10409E-15  1.10849E+02 -2.05494E-05  1.0E-07
  9.900E+00  7.44534E-03  3.07898E-15  1.09952E+02 -2.12832E-05  1.0E-07
  1.000E+01  7.59612E-03  3.05397E-15  1.09059E+02 -2.20330E-05  1.0E-07
  1.025E+01  7.97965E-03  2.99183E-15  1.06840E+02 -2.39792E-05  1.0E-07
  1.050E+01  8.37255E-03  2.93024E-15  1.04641E+02 -2.60323E-05  1.0E-07
  1.075E+01  8.77480E-03  2.86917E-15  1.02460E+02 -2.81973E-05  1.0E-07
  1.100E+01  9.18641E-03  2.80865E-15  1.00299E+02 -3.04794E-05  1.0E-07
  1.125E+01  9.60736E-03  2.74868E-15  9.81571E+01 -3.28830E-05  1.0E-07
  1.150E+01  1.00376E-02  2.68929E-15  9.60362E+01 -3.54125E-05  1.0E-07
  1.175E+01  1.04773E-02  2.63051E-15  9.39373E+01 -3.80718E-05  1.0E-07
  1.200E+01  1.09262E-02  2.57239E-15  9.18616E+01 -4.08644E-05  1.0E-07
  1.225E+01  1.13844E-02  2.51494E-15  8.98103E+01 -4.37941E-05  1.0E-07
  1.250E+01  1.18520E-02  2.45821E-15  8.77844E+01 -4.68646E-05  1.0E-07
  1.275E+01  1.23288E-02  2.40221E-15  8.57846E+01 -5.00800E-05  1.0E-07
  1.300E+01  1.28150E-02  2.34695E-15  8.38112E+01 -5.34452E-05  1.0E-07
  1.325E+01  1.33104E-02  2.29244E-15  8.18644E+01 -5.69658E-05  1.0E-07
  1.350E+01  1.38150E-02  2.23866E-15  7.99439E+01 -6.06482E-05  1.0E-07
  1.375E+01  1.43290E-02  2.18560E-15  7.80492E+01 -6.45001E-05  1.0E-07
  1.400E+01  1.48521E-02  2.13325E-15  7.61798E+01 -6.85298E-05  1.0E-07
