 #
 # Subroutine ELSEPA. Elastic scattering of electrons and positrons
 #                    by neutral atoms and positive ions
 #
 # Projectile: electron
 # Kinetic energy = 3.50000E+02 eV = 1.28623E+01 a.u.
 #
 # Element: Si,  Z =  14,  atomic weight = 2.80855E+01 g/mol
 #
 # Nuclear model: Fermi distribution
 #                Average radius = 3.25245E-13 cm
 #                Skin thickness = 5.46000E-14 cm
 #
 # Number of electrons = 14
 #
 # Electron density: analytical TFM model
 #                   A1 =  1.00000D-01 ,   ALPHA1 = 1.63337D+01
 #                   A2 =  5.50000D-01 ,   ALPHA2 = 3.26673D+00
 #                   A3 =  3.50000D-01 ,   ALPHA3 = 8.16684D-01
 #                   Volume integral = 1.40000E+01
 #
 # Furness-McCarthy exchange potential
 #
 # Correlation-polarization potential (Buckingham):
 #                           Alpha = 5.38000E-24 cm**3
 #                            Bpol = 4.33013E+00
 #
 # Total elastic cross section = 4.40741E-16 cm**2 = 1.57391E+01 a0**2
 # 1st transport cross section = 6.29216E-17 cm**2 = 2.24697E+00 a0**2
 # 2nd transport cross section = 7.93762E-17 cm**2 = 2.83458E+00 a0**2
 #
 #
 # Differential cross section:                       MU=(1-COS(THETA))/2
 #
 #  THETA        MU          DCS          DCS        Sherman      error
 #  (deg)                 (cm**2/sr)   (a0**2/sr)    function
 #----------------------------------------------------------------------
  0.000E+00  0.00000E+00  1.06029E-14  3.78636E+02  0.00000E+00  1.4E-06
  1.000E-04  7.61557E-13  1.06029E-14  3.78636E+02 -8.86401E-11  1.4E-06
  1.250E-04  1.18994E-12  1.06029E-14  3.78636E+02 -1.10800E-10  1.4E-06
  1.500E-04  1.71346E-12  1.06029E-14  3.78636E+02 -1.32960E-10  1.4E-06
  1.750E-04  2.33225E-12  1.06029E-14  3.78636E+02 -1.55120E-10  1.4E-06
  2.000E-04  3.04617E-12  1.06029E-14  3.78636E+02 -1.77280E-10  1.4E-06
  2.250E-04  3.85530E-12  1.06029E-14  3.78636E+02 -1.99440E-10  1.4E-06
  2.500E-04  4.75964E-12  1.06029E-14  3.78636E+02 -2.21600E-10  1.4E-06
  2.750E-04  5.75917E-12  1.06029E-14  3.78636E+02 -2.43760E-10  1.4E-06
  3.000E-04  6.85391E-12  1.06029E-14  3.78636E+02 -2.65920E-10  1.4E-06
  3.250E-04  8.04379E-12  1.06029E-14  3.78636E+02 -2.88080E-10  1.4E-06
  3.500E-04  9.32893E-12  1.06029E-14  3.78636E+02 -3.10240E-10  1.4E-06
  3.750E-04  1.07092E-11  1.06029E-14  3.78636E+02 -3.32400E-10  1.4E-06
  4.000E-04  1.21847E-11  1.06029E-14  3.78636E+02 -3.54560E-10  1.4E-06
  4.250E-04  1.37554E-11  1.06029E-14  3.78636E+02 -3.76720E-10  1.4E-06
  4.500E-04  1.54213E-11  1.06029E-14  3.78636E+02 -3.98881E-10  1.4E-06
  4.750E-04  1.71823E-11  1.06029E-14  3.78636E+02 -4.21041E-10  1.4E-06
  5.000E-04  1.90386E-11  1.06029E-14  3.78636E+02 -4.43201E-10  1.4E-06
  5.250E-04  2.09900E-11  1.06029E-14  3.78636E+02 -4.65361E-10  1.4E-06
  5.500E-04  2.30367E-11  1.06029E-14  3.78636E+02 -4.87521E-10  1.4E-06
  5.750E-04  2.51785E-11  1.06029E-14  3.78636E+02 -5.09681E-10  1.4E-06
  6.000E-04  2.74156E-11  1.06029E-14  3.78636E+02 -5.31841E-10  1.4E-06
  6.250E-04  2.97478E-11  1.06029E-14  3.78636E+02 -5.54001E-10  1.4E-06
  6.500E-04  3.21752E-11  1.06029E-14  3.78636E+02 -5.76161E-10  1.4E-06
  6.750E-04  3.46979E-11  1.06029E-14  3.78636E+02 -5.98321E-10  1.4E-06
  7.000E-04  3.73157E-11  1.06029E-14  3.78636E+02 -6.20481E-10  1.4E-06
  7.250E-04  4.00286E-11  1.06029E-14  3.78636E+02 -6.42641E-10  1.4E-06
  7.500E-04  4.28368E-11  1.06029E-14  3.78636E+02 -6.64801E-10  1.4E-06
  7.750E-04  4.57402E-11  1.06029E-14  3.78636E+02 -6.86961E-10  1.4E-06
  8.000E-04  4.87388E-11  1.06029E-14  3.78636E+02 -7.09121E-10  1.4E-06
  8.250E-04  5.18325E-11  1.06029E-14  3.78636E+02 -7.31281E-10  1.4E-06
  8.500E-04  5.50215E-11  1.06029E-14  3.78636E+02 -7.53441E-10  1.4E-06
  8.750E-04  5.83057E-11  1.06029E-14  3.78636E+02 -7.75601E-10  1.4E-06
  9.000E-04  6.16850E-11  1.06029E-14  3.78636E+02 -7.97761E-10  1.4E-06
  9.250E-04  6.51595E-11  1.06029E-14  3.78636E+02 -8.19921E-10  1.4E-06
  9.500E-04  6.87293E-11  1.06029E-14  3.78636E+02 -8.42081E-10  1.4E-06
  9.750E-04  7.23943E-11  1.06029E-14  3.78636E+02 -8.64241E-10  1.4E-06
  1.000E-03  7.61544E-11  1.06029E-14  3.78636E+02 -8.86401E-10  1.4E-06
  1.250E-03  1.18991E-10  1.06029E-14  3.78636E+02 -1.10800E-09  1.4E-06
  1.500E-03  1.71347E-10  1.06029E-14  3.78636E+02 -1.32960E-09  1.4E-06
  1.750E-03  2.33223E-10  1.06029E-14  3.78635E+02 -1.55120E-09  1.4E-06
  2.000E-03  3.04617E-10  1.06029E-14  3.78635E+02 -1.77280E-09  1.4E-06
  2.250E-03  3.85531E-10  1.06029E-14  3.78635E+02 -1.99441E-09  1.4E-06
  2.500E-03  4.75965E-10  1.06029E-14  3.78635E+02 -2.21601E-09  1.4E-06
  2.750E-03  5.75917E-10  1.06029E-14  3.78635E+02 -2.43761E-09  1.4E-06
  3.000E-03  6.85389E-10  1.06029E-14  3.78635E+02 -2.65921E-09  1.4E-06
  3.250E-03  8.04380E-10  1.06029E-14  3.78635E+02 -2.88081E-09  1.4E-06
  3.500E-03  9.32891E-10  1.06028E-14  3.78635E+02 -3.10241E-09  1.4E-06
  3.750E-03  1.07092E-09  1.06028E-14  3.78634E+02 -3.32402E-09  1.4E-06
  4.000E-03  1.21847E-09  1.06028E-14  3.78634E+02 -3.54562E-09  1.4E-06
  4.250E-03  1.37554E-09  1.06028E-14  3.78634E+02 -3.76722E-09  1.4E-06
  4.500E-03  1.54213E-09  1.06028E-14  3.78634E+02 -3.98883E-09  1.4E-06
  4.750E-03  1.71823E-09  1.06028E-14  3.78634E+02 -4.21043E-09  1.4E-06
  5.000E-03  1.90386E-09  1.06028E-14  3.78633E+02 -4.43204E-09  1.4E-06
  5.250E-03  2.09900E-09  1.06028E-14  3.78633E+02 -4.65364E-09  1.4E-06
  5.500E-03  2.30367E-09  1.06028E-14  3.78633E+02 -4.87525E-09  1.4E-06
  5.750E-03  2.51785E-09  1.06028E-14  3.78633E+02 -5.09685E-09  1.4E-06
  6.000E-03  2.74156E-09  1.06028E-14  3.78632E+02 -5.31846E-09  1.4E-06
  6.250E-03  2.97478E-09  1.06028E-14  3.78632E+02 -5.54007E-09  1.4E-06
  6.500E-03  3.21752E-09  1.06028E-14  3.78632E+02 -5.76168E-09  1.4E-06
  6.750E-03  3.46978E-09  1.06028E-14  3.78631E+02 -5.98329E-09  1.4E-06
  7.000E-03  3.73156E-09  1.06027E-14  3.78631E+02 -6.20490E-09  1.4E-06
  7.250E-03  4.00286E-09  1.06027E-14  3.78631E+02 -6.42651E-09  1.4E-06
  7.500E-03  4.28368E-09  1.06027E-14  3.78630E+02 -6.64812E-09  1.4E-06
  7.750E-03  4.57402E-09  1.06027E-14  3.78630E+02 -6.86973E-09  1.4E-06
  8.000E-03  4.87388E-09  1.06027E-14  3.78630E+02 -7.09134E-09  1.4E-06
  8.250E-03  5.18326E-09  1.06027E-14  3.78629E+02 -7.31295E-09  1.4E-06
  8.500E-03  5.50215E-09  1.06027E-14  3.78629E+02 -7.53457E-09  1.4E-06
  8.750E-03  5.83057E-09  1.06027E-14  3.78628E+02 -7.75618E-09  1.4E-06
  9.000E-03  6.16850E-09  1.06027E-14  3.78628E+02 -7.97780E-09  1.4E-06
  9.250E-03  6.51596E-09  1.06026E-14  3.78627E+02 -8.19941E-09  1.4E-06
  9.500E-03  6.87293E-09  1.06026E-14  3.78627E+02 -8.42103E-09  1.4E-06
  9.750E-03  7.23942E-09  1.06026E-14  3.78627E+02 -8.64265E-09  1.4E-06
  1.000E-02  7.61544E-09  1.06026E-14  3.78626E+02 -8.86427E-09  1.4E-06
  1.250E-02  1.18991E-08  1.06025E-14  3.78621E+02 -1.10805E-08  1.4E-06
  1.500E-02  1.71347E-08  1.06023E-14  3.78614E+02 -1.32969E-08  1.4E-06
  1.750E-02  2.33223E-08  1.06021E-14  3.78606E+02 -1.55134E-08  1.4E-06
  2.000E-02  3.04617E-08  1.06018E-14  3.78597E+02 -1.77301E-08  1.4E-06
  2.250E-02  3.85531E-08  1.06015E-14  3.78587E+02 -1.99469E-08  1.4E-06
  2.500E-02  4.75965E-08  1.06012E-14  3.78575E+02 -2.21640E-08  1.4E-06
  2.750E-02  5.75917E-08  1.06008E-14  3.78563E+02 -2.43814E-08  1.3E-06
  3.000E-02  6.85389E-08  1.06004E-14  3.78549E+02 -2.65989E-08  1.3E-06
  3.250E-02  8.04380E-08  1.06000E-14  3.78534E+02 -2.88168E-08  1.3E-06
  3.500E-02  9.32891E-08  1.05996E-14  3.78517E+02 -3.10350E-08  1.3E-06
  3.750E-02  1.07092E-07  1.05991E-14  3.78500E+02 -3.32535E-08  1.3E-06
  4.000E-02  1.21847E-07  1.05986E-14  3.78481E+02 -3.54724E-08  1.3E-06
  4.250E-02  1.37554E-07  1.05980E-14  3.78461E+02 -3.76917E-08  1.3E-06
  4.500E-02  1.54213E-07  1.05974E-14  3.78440E+02 -3.99114E-08  1.3E-06
  4.750E-02  1.71823E-07  1.05968E-14  3.78418E+02 -4.21315E-08  1.3E-06
  5.000E-02  1.90386E-07  1.05961E-14  3.78394E+02 -4.43520E-08  1.3E-06
  5.250E-02  2.09900E-07  1.05954E-14  3.78370E+02 -4.65731E-08  1.3E-06
  5.500E-02  2.30367E-07  1.05947E-14  3.78344E+02 -4.87946E-08  1.3E-06
  5.750E-02  2.51785E-07  1.05939E-14  3.78316E+02 -5.10167E-08  1.3E-06
  6.000E-02  2.74156E-07  1.05931E-14  3.78288E+02 -5.32393E-08  1.3E-06
  6.250E-02  2.97478E-07  1.05923E-14  3.78259E+02 -5.54625E-08  1.3E-06
  6.500E-02  3.21752E-07  1.05915E-14  3.78228E+02 -5.76862E-08  1.3E-06
  6.750E-02  3.46978E-07  1.05906E-14  3.78196E+02 -5.99106E-08  1.3E-06
  7.000E-02  3.73156E-07  1.05896E-14  3.78163E+02 -6.21357E-08  1.3E-06
  7.250E-02  4.00286E-07  1.05887E-14  3.78129E+02 -6.43614E-08  1.3E-06
  7.500E-02  4.28368E-07  1.05877E-14  3.78093E+02 -6.65878E-08  1.3E-06
  7.750E-02  4.57402E-07  1.05867E-14  3.78057E+02 -6.88149E-08  1.3E-06
  8.000E-02  4.87388E-07  1.05856E-14  3.78019E+02 -7.10428E-08  1.3E-06
  8.250E-02  5.18325E-07  1.05845E-14  3.77980E+02 -7.32714E-08  1.3E-06
  8.500E-02  5.50215E-07  1.05834E-14  3.77940E+02 -7.55008E-08  1.3E-06
  8.750E-02  5.83057E-07  1.05822E-14  3.77898E+02 -7.77310E-08  1.3E-06
  9.000E-02  6.16850E-07  1.05810E-14  3.77856E+02 -7.99620E-08  1.3E-06
  9.250E-02  6.51596E-07  1.05798E-14  3.77812E+02 -8.21939E-08  1.3E-06
  9.500E-02  6.87293E-07  1.05786E-14  3.77767E+02 -8.44266E-08  1.3E-06
  9.750E-02  7.23942E-07  1.05773E-14  3.77721E+02 -8.66603E-08  1.3E-06
  1.000E-01  7.61543E-07  1.05759E-14  3.77674E+02 -8.88948E-08  1.3E-06
  1.250E-01  1.18991E-06  1.05609E-14  3.77137E+02 -1.11296E-07  1.2E-06
  1.500E-01  1.71347E-06  1.05427E-14  3.76486E+02 -1.33814E-07  1.1E-06
  1.750E-01  2.33223E-06  1.05213E-14  3.75723E+02 -1.56471E-07  1.1E-06
  2.000E-01  3.04617E-06  1.04969E-14  3.74850E+02 -1.79287E-07  1.0E-06
  2.250E-01  3.85531E-06  1.04695E-14  3.73872E+02 -2.02282E-07  9.1E-07
  2.500E-01  4.75964E-06  1.04393E-14  3.72793E+02 -2.25475E-07  8.2E-07
  2.750E-01  5.75916E-06  1.04063E-14  3.71616E+02 -2.48883E-07  7.2E-07
  3.000E-01  6.85388E-06  1.03707E-14  3.70346E+02 -2.72522E-07  6.2E-07
  3.250E-01  8.04378E-06  1.03327E-14  3.68987E+02 -2.96407E-07  5.1E-07
  3.500E-01  9.32888E-06  1.02923E-14  3.67545E+02 -3.20551E-07  4.1E-07
  3.750E-01  1.07092E-05  1.02498E-14  3.66025E+02 -3.44964E-07  3.0E-07
  4.000E-01  1.21846E-05  1.02052E-14  3.64433E+02 -3.69658E-07  1.9E-07
  4.250E-01  1.37553E-05  1.01587E-14  3.62773E+02 -3.94639E-07  1.0E-07
  4.500E-01  1.54212E-05  1.01104E-14  3.61051E+02 -4.19914E-07  1.0E-07
  4.750E-01  1.71822E-05  1.00606E-14  3.59272E+02 -4.45488E-07  1.0E-07
  5.000E-01  1.90385E-05  1.00094E-14  3.57443E+02 -4.71362E-07  1.9E-07
  5.250E-01  2.09899E-05  9.95693E-15  3.55568E+02 -4.97538E-07  2.7E-07
  5.500E-01  2.30365E-05  9.90332E-15  3.53654E+02 -5.24016E-07  3.4E-07
  5.750E-01  2.51783E-05  9.84873E-15  3.51705E+02 -5.50792E-07  4.1E-07
  6.000E-01  2.74153E-05  9.79333E-15  3.49726E+02 -5.77862E-07  4.6E-07
  6.250E-01  2.97475E-05  9.73723E-15  3.47723E+02 -6.05222E-07  5.0E-07
  6.500E-01  3.21749E-05  9.68059E-15  3.45700E+02 -6.32864E-07  5.4E-07
  6.750E-01  3.46974E-05  9.62352E-15  3.43662E+02 -6.60781E-07  5.6E-07
  7.000E-01  3.73152E-05  9.56615E-15  3.41613E+02 -6.88963E-07  5.7E-07
  7.250E-01  4.00281E-05  9.50859E-15  3.39558E+02 -7.17400E-07  5.8E-07
  7.500E-01  4.28362E-05  9.45095E-15  3.37500E+02 -7.46082E-07  5.7E-07
  7.750E-01  4.57395E-05  9.39333E-15  3.35442E+02 -7.74997E-07  5.5E-07
  8.000E-01  4.87380E-05  9.33581E-15  3.33388E+02 -8.04135E-07  5.2E-07
  8.250E-01  5.18317E-05  9.27849E-15  3.31341E+02 -8.33482E-07  4.9E-07
  8.500E-01  5.50205E-05  9.22143E-15  3.29303E+02 -8.63028E-07  4.4E-07
  8.750E-01  5.83045E-05  9.16470E-15  3.27278E+02 -8.92761E-07  3.9E-07
  9.000E-01  6.16838E-05  9.10836E-15  3.25266E+02 -9.22670E-07  3.4E-07
  9.250E-01  6.51582E-05  9.05246E-15  3.23269E+02 -9.52744E-07  2.8E-07
  9.500E-01  6.87277E-05  8.99703E-15  3.21290E+02 -9.82974E-07  2.1E-07
  9.750E-01  7.23925E-05  8.94212E-15  3.19329E+02 -1.01335E-06  1.5E-07
  1.000E+00  7.61524E-05  8.88775E-15  3.17387E+02 -1.04387E-06  1.0E-07
  1.100E+00  9.21439E-05  8.67594E-15  3.09824E+02 -1.16721E-06  1.8E-07
  1.200E+00  1.09658E-04  8.47325E-15  3.02585E+02 -1.29249E-06  3.8E-07
  1.300E+00  1.28695E-04  8.27881E-15  2.95642E+02 -1.41987E-06  4.6E-07
  1.400E+00  1.49255E-04  8.09109E-15  2.88938E+02 -1.54986E-06  4.1E-07
  1.500E+00  1.71338E-04  7.90840E-15  2.82414E+02 -1.68316E-06  2.5E-07
  1.600E+00  1.94942E-04  7.72924E-15  2.76016E+02 -1.82052E-06  1.0E-07
  1.700E+00  2.20070E-04  7.55260E-15  2.69708E+02 -1.96263E-06  1.9E-07
  1.800E+00  2.46720E-04  7.37799E-15  2.63473E+02 -2.10991E-06  3.5E-07
  1.900E+00  2.74892E-04  7.20543E-15  2.57310E+02 -2.26251E-06  4.1E-07
  2.000E+00  3.04586E-04  7.03529E-15  2.51235E+02 -2.42029E-06  3.5E-07
  2.100E+00  3.35803E-04  6.86813E-15  2.45266E+02 -2.58288E-06  2.0E-07
  2.200E+00  3.68542E-04  6.70448E-15  2.39421E+02 -2.74984E-06  1.0E-07
  2.300E+00  4.02802E-04  6.54470E-15  2.33715E+02 -2.92078E-06  2.1E-07
  2.400E+00  4.38585E-04  6.38893E-15  2.28153E+02 -3.09549E-06  3.4E-07
  2.500E+00  4.75889E-04  6.23707E-15  2.22730E+02 -3.27403E-06  3.8E-07
  2.600E+00  5.14715E-04  6.08883E-15  2.17436E+02 -3.45672E-06  3.2E-07
  2.700E+00  5.55063E-04  5.94380E-15  2.12257E+02 -3.64412E-06  1.6E-07
  2.800E+00  5.96931E-04  5.80160E-15  2.07179E+02 -3.83687E-06  1.0E-07
  2.900E+00  6.40321E-04  5.66191E-15  2.02191E+02 -4.03560E-06  2.2E-07
  3.000E+00  6.85233E-04  5.52455E-15  1.97285E+02 -4.24080E-06  3.4E-07
  3.100E+00  7.31665E-04  5.38948E-15  1.92462E+02 -4.45271E-06  3.7E-07
  3.200E+00  7.79618E-04  5.25678E-15  1.87723E+02 -4.67133E-06  2.9E-07
  3.300E+00  8.29092E-04  5.12662E-15  1.83075E+02 -4.89645E-06  1.3E-07
  3.400E+00  8.80086E-04  4.99917E-15  1.78524E+02 -5.12776E-06  1.0E-07
  3.500E+00  9.32601E-04  4.87455E-15  1.74073E+02 -5.36495E-06  2.4E-07
  3.600E+00  9.86636E-04  4.75282E-15  1.69726E+02 -5.60785E-06  3.5E-07
  3.700E+00  1.04219E-03  4.63394E-15  1.65481E+02 -5.85653E-06  3.6E-07
  3.800E+00  1.09927E-03  4.51781E-15  1.61334E+02 -6.11129E-06  2.7E-07
  3.900E+00  1.15786E-03  4.40428E-15  1.57280E+02 -6.37266E-06  1.0E-07
  4.000E+00  1.21797E-03  4.29316E-15  1.53311E+02 -6.64128E-06  1.0E-07
  4.100E+00  1.27961E-03  4.18432E-15  1.49425E+02 -6.91780E-06  2.6E-07
  4.200E+00  1.34276E-03  4.07767E-15  1.45616E+02 -7.20272E-06  3.6E-07
  4.300E+00  1.40743E-03  3.97318E-15  1.41885E+02 -7.49636E-06  3.5E-07
  4.400E+00  1.47362E-03  3.87085E-15  1.38231E+02 -7.79878E-06  2.5E-07
  4.500E+00  1.54133E-03  3.77076E-15  1.34656E+02 -8.10981E-06  1.0E-07
  4.600E+00  1.61056E-03  3.67295E-15  1.31163E+02 -8.42917E-06  1.2E-07
  4.700E+00  1.68131E-03  3.57747E-15  1.27754E+02 -8.75660E-06  2.8E-07
  4.800E+00  1.75357E-03  3.48433E-15  1.24428E+02 -9.09192E-06  3.7E-07
  4.900E+00  1.82735E-03  3.39351E-15  1.21184E+02 -9.43519E-06  3.5E-07
  5.000E+00  1.90265E-03  3.30494E-15  1.18021E+02 -9.78671E-06  2.3E-07
  5.100E+00  1.97947E-03  3.21853E-15  1.14936E+02 -1.01470E-05  1.0E-07
  5.200E+00  2.05780E-03  3.13418E-15  1.11924E+02 -1.05167E-05  1.5E-07
  5.300E+00  2.13765E-03  3.05182E-15  1.08983E+02 -1.08966E-05  3.1E-07
  5.400E+00  2.21902E-03  2.97138E-15  1.06110E+02 -1.12870E-05  3.8E-07
  5.500E+00  2.30190E-03  2.89282E-15  1.03304E+02 -1.16885E-05  3.4E-07
  5.600E+00  2.38630E-03  2.81613E-15  1.00566E+02 -1.21010E-05  2.1E-07
  5.700E+00  2.47222E-03  2.74132E-15  9.78944E+01 -1.25243E-05  1.0E-07
  5.800E+00  2.55965E-03  2.66841E-15  9.52905E+01 -1.29583E-05  1.8E-07
  5.900E+00  2.64859E-03  2.59738E-15  9.27543E+01 -1.34025E-05  3.3E-07
  6.000E+00  2.73905E-03  2.52825E-15  9.02853E+01 -1.38567E-05  3.9E-07
  6.100E+00  2.83103E-03  2.46096E-15  8.78825E+01 -1.43210E-05  3.4E-07
  6.200E+00  2.92452E-03  2.39548E-15  8.55441E+01 -1.47956E-05  1.9E-07
  6.300E+00  3.01952E-03  2.33173E-15  8.32677E+01 -1.52811E-05  1.0E-07
  6.400E+00  3.11604E-03  2.26966E-15  8.10510E+01 -1.57781E-05  2.2E-07
  6.500E+00  3.21407E-03  2.20919E-15  7.88918E+01 -1.62873E-05  3.6E-07
  6.600E+00  3.31362E-03  2.15029E-15  7.67882E+01 -1.68092E-05  4.0E-07
  6.700E+00  3.41468E-03  2.09291E-15  7.47390E+01 -1.73443E-05  3.3E-07
  6.800E+00  3.51725E-03  2.03702E-15  7.27435E+01 -1.78923E-05  1.6E-07
  6.900E+00  3.62133E-03  1.98263E-15  7.08011E+01 -1.84533E-05  1.0E-07
  7.000E+00  3.72692E-03  1.92972E-15  6.89117E+01 -1.90267E-05  2.5E-07
  7.100E+00  3.83403E-03  1.87828E-15  6.70747E+01 -1.96122E-05  3.8E-07
  7.200E+00  3.94265E-03  1.82829E-15  6.52894E+01 -2.02094E-05  4.1E-07
  7.300E+00  4.05278E-03  1.77971E-15  6.35547E+01 -2.08183E-05  3.2E-07
  7.400E+00  4.16442E-03  1.73251E-15  6.18691E+01 -2.14390E-05  1.4E-07
  7.500E+00  4.27757E-03  1.68664E-15  6.02309E+01 -2.20722E-05  1.0E-07
  7.600E+00  4.39223E-03  1.64204E-15  5.86382E+01 -2.27183E-05  2.9E-07
  7.700E+00  4.50840E-03  1.59867E-15  5.70895E+01 -2.33781E-05  4.1E-07
  7.800E+00  4.62608E-03  1.55649E-15  5.55832E+01 -2.40521E-05  4.2E-07
  7.900E+00  4.74527E-03  1.51546E-15  5.41182E+01 -2.47406E-05  3.1E-07
  8.000E+00  4.86597E-03  1.47558E-15  5.26938E+01 -2.54434E-05  1.1E-07
  8.100E+00  4.98817E-03  1.43680E-15  5.13092E+01 -2.61603E-05  1.2E-07
  8.200E+00  5.11188E-03  1.39913E-15  4.99639E+01 -2.68907E-05  3.2E-07
  8.300E+00  5.23711E-03  1.36255E-15  4.86574E+01 -2.76341E-05  4.4E-07
  8.400E+00  5.36383E-03  1.32702E-15  4.73888E+01 -2.83899E-05  4.3E-07
  8.500E+00  5.49207E-03  1.29254E-15  4.61573E+01 -2.91580E-05  3.0E-07
  8.600E+00  5.62181E-03  1.25905E-15  4.49617E+01 -2.99385E-05  1.0E-07
  8.700E+00  5.75306E-03  1.22654E-15  4.38006E+01 -3.07318E-05  1.6E-07
  8.800E+00  5.88581E-03  1.19496E-15  4.26728E+01 -3.15384E-05  3.6E-07
  8.900E+00  6.02007E-03  1.16427E-15  4.15770E+01 -3.23591E-05  4.6E-07
  9.000E+00  6.15583E-03  1.13445E-15  4.05121E+01 -3.31942E-05  4.3E-07
  9.100E+00  6.29310E-03  1.10548E-15  3.94772E+01 -3.40440E-05  2.8E-07
  9.200E+00  6.43187E-03  1.07732E-15  3.84717E+01 -3.49081E-05  1.0E-07
  9.300E+00  6.57214E-03  1.04996E-15  3.74948E+01 -3.57862E-05  2.0E-07
  9.400E+00  6.71392E-03  1.02340E-15  3.65462E+01 -3.66776E-05  4.0E-07
  9.500E+00  6.85720E-03  9.97605E-16  3.56251E+01 -3.75813E-05  4.8E-07
  9.600E+00  7.00198E-03  9.72568E-16  3.47310E+01 -3.84969E-05  4.4E-07
  9.700E+00  7.14827E-03  9.48266E-16  3.38632E+01 -3.94240E-05  2.6E-07
  9.800E+00  7.29605E-03  9.24675E-16  3.30208E+01 -4.03624E-05  1.0E-07
  9.900E+00  7.44534E-03  9.01769E-16  3.22028E+01 -4.13126E-05  2.5E-07
  1.000E+01  7.59612E-03  8.79522E-16  3.14083E+01 -4.22750E-05  4.4E-07
  1.025E+01  7.97965E-03  8.26630E-16  2.95195E+01 -4.47376E-05  3.5E-07
  1.050E+01  8.37255E-03  7.77403E-16  2.77616E+01 -4.72809E-05  2.9E-07
  1.075E+01  8.77480E-03  7.31623E-16  2.61267E+01 -4.98944E-05  5.0E-07
  1.100E+01  9.18641E-03  6.89080E-16  2.46075E+01 -5.25663E-05  1.0E-07
  1.125E+01  9.60736E-03  6.49510E-16  2.31944E+01 -5.52947E-05  5.5E-07
  1.150E+01  1.00376E-02  6.12650E-16  2.18781E+01 -5.80847E-05  1.8E-07
  1.175E+01  1.04773E-02  5.78297E-16  2.06514E+01 -6.09335E-05  4.8E-07
  1.200E+01  1.09262E-02  5.46299E-16  1.95087E+01 -6.38268E-05  4.1E-07
  1.225E+01  1.13844E-02  5.16495E-16  1.84444E+01 -6.67513E-05  3.1E-07
  1.250E+01  1.18520E-02  4.88704E-16  1.74519E+01 -6.97057E-05  5.7E-07
  1.275E+01  1.23288E-02  4.62753E-16  1.65252E+01 -7.26931E-05  1.0E-07
  1.300E+01  1.28150E-02  4.38510E-16  1.56595E+01 -7.57064E-05  6.1E-07
  1.325E+01  1.33104E-02  4.15866E-16  1.48508E+01 -7.87287E-05  2.2E-07
  1.350E+01  1.38150E-02  3.94709E-16  1.40953E+01 -8.17467E-05  5.3E-07
  1.375E+01  1.43290E-02  3.74915E-16  1.33885E+01 -8.47595E-05  4.7E-07
  1.400E+01  1.48521E-02  3.56375E-16  1.27264E+01 -8.77678E-05  3.3E-07
  1.425E+01  1.53845E-02  3.39002E-16  1.21060E+01 -9.07612E-05  6.4E-07
  1.450E+01  1.59262E-02  3.22720E-16  1.15245E+01 -9.37213E-05  1.0E-07
