 #
 # Subroutine ELSEPA. Elastic scattering of electrons and positrons
 #                    by neutral atoms and positive ions
 #
 # Projectile: electron
 # Kinetic energy = 1.30000E+01 eV = 4.77741E-01 a.u.
 #
 #  ***  WARNING: Energy is too low.
 #                The reliability of the results is questionable.
 #
 # Element: Si,  Z =  14,  atomic weight = 2.80855E+01 g/mol
 #
 # Nuclear model: Fermi distribution
 #                Average radius = 3.25245E-13 cm
 #                Skin thickness = 5.46000E-14 cm
 #
 # Number of electrons = 14
 #
 # Electron density: analytical TFM model
 #                   A1 =  1.00000D-01 ,   ALPHA1 = 1.63337D+01
 #                   A2 =  5.50000D-01 ,   ALPHA2 = 3.26673D+00
 #                   A3 =  3.50000D-01 ,   ALPHA3 = 8.16684D-01
 #                   Volume integral = 1.40000E+01
 #
 # Furness-McCarthy exchange potential
 #
 # Correlation-polarization potential (Buckingham):
 #                           Alpha = 5.38000E-24 cm**3
 #                            Bpol = 1.00000E+00
 #
 # Total elastic cross section = 2.23462E-15 cm**2 = 7.97996E+01 a0**2
 # 1st transport cross section = 1.01228E-15 cm**2 = 3.61493E+01 a0**2
 # 2nd transport cross section = 1.32820E-15 cm**2 = 4.74310E+01 a0**2
 #
 #
 # Differential cross section:                       MU=(1-COS(THETA))/2
 #
 #  THETA        MU          DCS          DCS        Sherman      error
 #  (deg)                 (cm**2/sr)   (a0**2/sr)    function
 #----------------------------------------------------------------------
  0.000E+00  0.00000E+00  5.91547E-15  2.11245E+02  0.00000E+00  1.0E-07
  1.000E-04  7.61557E-13  5.91547E-15  2.11245E+02 -4.25547E-10  1.0E-07
  1.250E-04  1.18994E-12  5.91547E-15  2.11245E+02 -5.31934E-10  1.0E-07
  1.500E-04  1.71346E-12  5.91547E-15  2.11245E+02 -6.38321E-10  1.0E-07
  1.750E-04  2.33225E-12  5.91547E-15  2.11245E+02 -7.44708E-10  1.0E-07
  2.000E-04  3.04617E-12  5.91547E-15  2.11245E+02 -8.51094E-10  1.0E-07
  2.250E-04  3.85530E-12  5.91547E-15  2.11245E+02 -9.57481E-10  1.0E-07
  2.500E-04  4.75964E-12  5.91547E-15  2.11245E+02 -1.06387E-09  1.0E-07
  2.750E-04  5.75917E-12  5.91547E-15  2.11245E+02 -1.17025E-09  1.0E-07
  3.000E-04  6.85391E-12  5.91547E-15  2.11245E+02 -1.27664E-09  1.0E-07
  3.250E-04  8.04379E-12  5.91547E-15  2.11245E+02 -1.38303E-09  1.0E-07
  3.500E-04  9.32893E-12  5.91547E-15  2.11245E+02 -1.48942E-09  1.0E-07
  3.750E-04  1.07092E-11  5.91547E-15  2.11245E+02 -1.59580E-09  1.0E-07
  4.000E-04  1.21847E-11  5.91547E-15  2.11245E+02 -1.70219E-09  1.0E-07
  4.250E-04  1.37554E-11  5.91547E-15  2.11245E+02 -1.80858E-09  1.0E-07
  4.500E-04  1.54213E-11  5.91547E-15  2.11245E+02 -1.91496E-09  1.0E-07
  4.750E-04  1.71823E-11  5.91547E-15  2.11245E+02 -2.02135E-09  1.0E-07
  5.000E-04  1.90386E-11  5.91547E-15  2.11245E+02 -2.12774E-09  1.0E-07
  5.250E-04  2.09900E-11  5.91547E-15  2.11245E+02 -2.23412E-09  1.0E-07
  5.500E-04  2.30367E-11  5.91547E-15  2.11245E+02 -2.34051E-09  1.0E-07
  5.750E-04  2.51785E-11  5.91547E-15  2.11245E+02 -2.44690E-09  1.0E-07
  6.000E-04  2.74156E-11  5.91547E-15  2.11245E+02 -2.55328E-09  1.0E-07
  6.250E-04  2.97478E-11  5.91547E-15  2.11245E+02 -2.65967E-09  1.0E-07
  6.500E-04  3.21752E-11  5.91547E-15  2.11245E+02 -2.76606E-09  1.0E-07
  6.750E-04  3.46979E-11  5.91547E-15  2.11245E+02 -2.87244E-09  1.0E-07
  7.000E-04  3.73157E-11  5.91547E-15  2.11245E+02 -2.97883E-09  1.0E-07
  7.250E-04  4.00286E-11  5.91547E-15  2.11245E+02 -3.08522E-09  1.0E-07
  7.500E-04  4.28368E-11  5.91547E-15  2.11245E+02 -3.19160E-09  1.0E-07
  7.750E-04  4.57402E-11  5.91547E-15  2.11245E+02 -3.29799E-09  1.0E-07
  8.000E-04  4.87388E-11  5.91547E-15  2.11245E+02 -3.40438E-09  1.0E-07
  8.250E-04  5.18325E-11  5.91547E-15  2.11245E+02 -3.51076E-09  1.0E-07
  8.500E-04  5.50215E-11  5.91547E-15  2.11245E+02 -3.61715E-09  1.0E-07
  8.750E-04  5.83057E-11  5.91547E-15  2.11245E+02 -3.72354E-09  1.0E-07
  9.000E-04  6.16850E-11  5.91547E-15  2.11245E+02 -3.82993E-09  1.0E-07
  9.250E-04  6.51595E-11  5.91547E-15  2.11245E+02 -3.93631E-09  1.0E-07
  9.500E-04  6.87293E-11  5.91547E-15  2.11245E+02 -4.04270E-09  1.0E-07
  9.750E-04  7.23943E-11  5.91547E-15  2.11245E+02 -4.14909E-09  1.0E-07
  1.000E-03  7.61544E-11  5.91547E-15  2.11245E+02 -4.25547E-09  1.0E-07
  1.250E-03  1.18991E-10  5.91547E-15  2.11245E+02 -5.31934E-09  1.0E-07
  1.500E-03  1.71347E-10  5.91547E-15  2.11245E+02 -6.38321E-09  1.0E-07
  1.750E-03  2.33223E-10  5.91547E-15  2.11245E+02 -7.44708E-09  1.0E-07
  2.000E-03  3.04617E-10  5.91547E-15  2.11245E+02 -8.51095E-09  1.0E-07
  2.250E-03  3.85531E-10  5.91547E-15  2.11245E+02 -9.57481E-09  1.0E-07
  2.500E-03  4.75965E-10  5.91547E-15  2.11245E+02 -1.06387E-08  1.0E-07
  2.750E-03  5.75917E-10  5.91547E-15  2.11245E+02 -1.17026E-08  1.0E-07
  3.000E-03  6.85389E-10  5.91547E-15  2.11245E+02 -1.27664E-08  1.0E-07
  3.250E-03  8.04380E-10  5.91547E-15  2.11245E+02 -1.38303E-08  1.0E-07
  3.500E-03  9.32891E-10  5.91547E-15  2.11245E+02 -1.48942E-08  1.0E-07
  3.750E-03  1.07092E-09  5.91547E-15  2.11245E+02 -1.59580E-08  1.0E-07
  4.000E-03  1.21847E-09  5.91547E-15  2.11245E+02 -1.70219E-08  1.0E-07
  4.250E-03  1.37554E-09  5.91547E-15  2.11245E+02 -1.80858E-08  1.0E-07
  4.500E-03  1.54213E-09  5.91547E-15  2.11245E+02 -1.91496E-08  1.0E-07
  4.750E-03  1.71823E-09  5.91547E-15  2.11245E+02 -2.02135E-08  1.0E-07
  5.000E-03  1.90386E-09  5.91547E-15  2.11245E+02 -2.12774E-08  1.0E-07
  5.250E-03  2.09900E-09  5.91547E-15  2.11245E+02 -2.23413E-08  1.0E-07
  5.500E-03  2.30367E-09  5.91547E-15  2.11245E+02 -2.34051E-08  1.0E-07
  5.750E-03  2.51785E-09  5.91547E-15  2.11245E+02 -2.44690E-08  1.0E-07
  6.000E-03  2.74156E-09  5.91547E-15  2.11245E+02 -2.55329E-08  1.0E-07
  6.250E-03  2.97478E-09  5.91547E-15  2.11245E+02 -2.65967E-08  1.0E-07
  6.500E-03  3.21752E-09  5.91547E-15  2.11245E+02 -2.76606E-08  1.0E-07
  6.750E-03  3.46978E-09  5.91547E-15  2.11245E+02 -2.87245E-08  1.0E-07
  7.000E-03  3.73156E-09  5.91547E-15  2.11245E+02 -2.97884E-08  1.0E-07
  7.250E-03  4.00286E-09  5.91547E-15  2.11245E+02 -3.08522E-08  1.0E-07
  7.500E-03  4.28368E-09  5.91547E-15  2.11245E+02 -3.19161E-08  1.0E-07
  7.750E-03  4.57402E-09  5.91547E-15  2.11245E+02 -3.29800E-08  1.0E-07
  8.000E-03  4.87388E-09  5.91547E-15  2.11245E+02 -3.40439E-08  1.0E-07
  8.250E-03  5.18326E-09  5.91547E-15  2.11245E+02 -3.51077E-08  1.0E-07
  8.500E-03  5.50215E-09  5.91547E-15  2.11245E+02 -3.61716E-08  1.0E-07
  8.750E-03  5.83057E-09  5.91547E-15  2.11245E+02 -3.72355E-08  1.0E-07
  9.000E-03  6.16850E-09  5.91546E-15  2.11245E+02 -3.82994E-08  1.0E-07
  9.250E-03  6.51596E-09  5.91546E-15  2.11245E+02 -3.93632E-08  1.0E-07
  9.500E-03  6.87293E-09  5.91546E-15  2.11245E+02 -4.04271E-08  1.0E-07
  9.750E-03  7.23942E-09  5.91546E-15  2.11245E+02 -4.14910E-08  1.0E-07
  1.000E-02  7.61544E-09  5.91546E-15  2.11245E+02 -4.25549E-08  1.0E-07
  1.250E-02  1.18991E-08  5.91546E-15  2.11245E+02 -5.31937E-08  1.0E-07
  1.500E-02  1.71347E-08  5.91545E-15  2.11244E+02 -6.38326E-08  1.0E-07
  1.750E-02  2.33223E-08  5.91544E-15  2.11244E+02 -7.44715E-08  1.0E-07
  2.000E-02  3.04617E-08  5.91543E-15  2.11244E+02 -8.51106E-08  1.0E-07
  2.250E-02  3.85531E-08  5.91541E-15  2.11243E+02 -9.57498E-08  1.0E-07
  2.500E-02  4.75965E-08  5.91540E-15  2.11243E+02 -1.06389E-07  1.0E-07
  2.750E-02  5.75917E-08  5.91538E-15  2.11242E+02 -1.17028E-07  1.0E-07
  3.000E-02  6.85389E-08  5.91537E-15  2.11242E+02 -1.27668E-07  1.0E-07
  3.250E-02  8.04380E-08  5.91535E-15  2.11241E+02 -1.38308E-07  1.0E-07
  3.500E-02  9.32891E-08  5.91533E-15  2.11240E+02 -1.48948E-07  1.0E-07
  3.750E-02  1.07092E-07  5.91530E-15  2.11239E+02 -1.59588E-07  1.0E-07
  4.000E-02  1.21847E-07  5.91528E-15  2.11238E+02 -1.70228E-07  1.0E-07
  4.250E-02  1.37554E-07  5.91525E-15  2.11238E+02 -1.80869E-07  1.0E-07
  4.500E-02  1.54213E-07  5.91523E-15  2.11237E+02 -1.91509E-07  1.0E-07
  4.750E-02  1.71823E-07  5.91520E-15  2.11236E+02 -2.02150E-07  1.0E-07
  5.000E-02  1.90386E-07  5.91517E-15  2.11235E+02 -2.12792E-07  1.0E-07
  5.250E-02  2.09900E-07  5.91514E-15  2.11233E+02 -2.23433E-07  1.0E-07
  5.500E-02  2.30367E-07  5.91511E-15  2.11232E+02 -2.34075E-07  1.0E-07
  5.750E-02  2.51785E-07  5.91507E-15  2.11231E+02 -2.44717E-07  1.0E-07
  6.000E-02  2.74156E-07  5.91504E-15  2.11230E+02 -2.55360E-07  1.0E-07
  6.250E-02  2.97478E-07  5.91500E-15  2.11228E+02 -2.66002E-07  1.0E-07
  6.500E-02  3.21752E-07  5.91496E-15  2.11227E+02 -2.76645E-07  1.0E-07
  6.750E-02  3.46978E-07  5.91492E-15  2.11226E+02 -2.87289E-07  1.0E-07
  7.000E-02  3.73156E-07  5.91488E-15  2.11224E+02 -2.97933E-07  1.0E-07
  7.250E-02  4.00286E-07  5.91484E-15  2.11223E+02 -3.08577E-07  1.0E-07
  7.500E-02  4.28368E-07  5.91479E-15  2.11221E+02 -3.19221E-07  1.0E-07
  7.750E-02  4.57402E-07  5.91474E-15  2.11219E+02 -3.29866E-07  1.0E-07
  8.000E-02  4.87388E-07  5.91470E-15  2.11218E+02 -3.40512E-07  1.0E-07
  8.250E-02  5.18325E-07  5.91465E-15  2.11216E+02 -3.51158E-07  1.0E-07
  8.500E-02  5.50215E-07  5.91460E-15  2.11214E+02 -3.61804E-07  1.0E-07
  8.750E-02  5.83057E-07  5.91454E-15  2.11212E+02 -3.72451E-07  1.0E-07
  9.000E-02  6.16850E-07  5.91449E-15  2.11210E+02 -3.83098E-07  1.0E-07
  9.250E-02  6.51596E-07  5.91444E-15  2.11208E+02 -3.93746E-07  1.0E-07
  9.500E-02  6.87293E-07  5.91438E-15  2.11206E+02 -4.04394E-07  1.0E-07
  9.750E-02  7.23942E-07  5.91432E-15  2.11204E+02 -4.15043E-07  1.0E-07
  1.000E-01  7.61543E-07  5.91426E-15  2.11202E+02 -4.25692E-07  1.0E-07
  1.250E-01  1.18991E-06  5.91358E-15  2.11178E+02 -5.32217E-07  1.0E-07
  1.500E-01  1.71347E-06  5.91274E-15  2.11148E+02 -6.38809E-07  1.0E-07
  1.750E-01  2.33223E-06  5.91176E-15  2.11113E+02 -7.45483E-07  1.0E-07
  2.000E-01  3.04617E-06  5.91062E-15  2.11072E+02 -8.52251E-07  1.0E-07
  2.250E-01  3.85531E-06  5.90934E-15  2.11026E+02 -9.59128E-07  1.0E-07
  2.500E-01  4.75964E-06  5.90790E-15  2.10975E+02 -1.06613E-06  1.0E-07
  2.750E-01  5.75916E-06  5.90632E-15  2.10918E+02 -1.17326E-06  1.0E-07
  3.000E-01  6.85388E-06  5.90458E-15  2.10857E+02 -1.28054E-06  1.0E-07
  3.250E-01  8.04378E-06  5.90270E-15  2.10789E+02 -1.38798E-06  1.0E-07
  3.500E-01  9.32888E-06  5.90067E-15  2.10717E+02 -1.49560E-06  1.0E-07
  3.750E-01  1.07092E-05  5.89850E-15  2.10639E+02 -1.60341E-06  1.0E-07
  4.000E-01  1.21846E-05  5.89618E-15  2.10556E+02 -1.71141E-06  1.0E-07
  4.250E-01  1.37553E-05  5.89371E-15  2.10468E+02 -1.81963E-06  1.0E-07
  4.500E-01  1.54212E-05  5.89110E-15  2.10375E+02 -1.92808E-06  1.0E-07
  4.750E-01  1.71822E-05  5.88835E-15  2.10277E+02 -2.03677E-06  1.0E-07
  5.000E-01  1.90385E-05  5.88545E-15  2.10173E+02 -2.14571E-06  1.0E-07
  5.250E-01  2.09899E-05  5.88241E-15  2.10065E+02 -2.25491E-06  1.0E-07
  5.500E-01  2.30365E-05  5.87924E-15  2.09951E+02 -2.36439E-06  1.0E-07
  5.750E-01  2.51783E-05  5.87592E-15  2.09833E+02 -2.47417E-06  1.0E-07
  6.000E-01  2.74153E-05  5.87246E-15  2.09709E+02 -2.58424E-06  1.0E-07
  6.250E-01  2.97475E-05  5.86887E-15  2.09581E+02 -2.69463E-06  1.0E-07
  6.500E-01  3.21749E-05  5.86514E-15  2.09448E+02 -2.80535E-06  1.0E-07
  6.750E-01  3.46974E-05  5.86128E-15  2.09310E+02 -2.91641E-06  1.0E-07
  7.000E-01  3.73152E-05  5.85728E-15  2.09167E+02 -3.02782E-06  1.0E-07
  7.250E-01  4.00281E-05  5.85316E-15  2.09020E+02 -3.13959E-06  1.0E-07
  7.500E-01  4.28362E-05  5.84890E-15  2.08868E+02 -3.25174E-06  1.0E-07
  7.750E-01  4.57395E-05  5.84451E-15  2.08711E+02 -3.36427E-06  1.0E-07
  8.000E-01  4.87380E-05  5.84000E-15  2.08550E+02 -3.47720E-06  1.0E-07
  8.250E-01  5.18317E-05  5.83535E-15  2.08384E+02 -3.59055E-06  1.0E-07
  8.500E-01  5.50205E-05  5.83059E-15  2.08214E+02 -3.70431E-06  1.0E-07
  8.750E-01  5.83045E-05  5.82570E-15  2.08040E+02 -3.81850E-06  1.0E-07
  9.000E-01  6.16838E-05  5.82069E-15  2.07861E+02 -3.93314E-06  1.0E-07
  9.250E-01  6.51582E-05  5.81556E-15  2.07677E+02 -4.04823E-06  1.0E-07
  9.500E-01  6.87277E-05  5.81031E-15  2.07490E+02 -4.16378E-06  1.0E-07
  9.750E-01  7.23925E-05  5.80495E-15  2.07298E+02 -4.27981E-06  1.0E-07
  1.000E+00  7.61524E-05  5.79947E-15  2.07103E+02 -4.39632E-06  1.0E-07
  1.100E+00  9.21439E-05  5.77644E-15  2.06280E+02 -4.86743E-06  1.0E-07
  1.200E+00  1.09658E-04  5.75171E-15  2.05397E+02 -5.34707E-06  1.0E-07
  1.300E+00  1.28695E-04  5.72541E-15  2.04458E+02 -5.83582E-06  1.0E-07
  1.400E+00  1.49255E-04  5.69765E-15  2.03467E+02 -6.33422E-06  1.0E-07
  1.500E+00  1.71338E-04  5.66857E-15  2.02428E+02 -6.84274E-06  1.0E-07
  1.600E+00  1.94942E-04  5.63829E-15  2.01347E+02 -7.36182E-06  1.0E-07
  1.700E+00  2.20070E-04  5.60693E-15  2.00227E+02 -7.89182E-06  1.0E-07
  1.800E+00  2.46720E-04  5.57463E-15  1.99074E+02 -8.43308E-06  1.0E-07
  1.900E+00  2.74892E-04  5.54150E-15  1.97890E+02 -8.98586E-06  1.0E-07
  2.000E+00  3.04586E-04  5.50766E-15  1.96682E+02 -9.55038E-06  1.0E-07
  2.100E+00  3.35803E-04  5.47324E-15  1.95453E+02 -1.01268E-05  1.0E-07
  2.200E+00  3.68542E-04  5.43833E-15  1.94206E+02 -1.07153E-05  1.0E-07
  2.300E+00  4.02802E-04  5.40304E-15  1.92946E+02 -1.13159E-05  1.0E-07
  2.400E+00  4.38585E-04  5.36748E-15  1.91676E+02 -1.19287E-05  1.0E-07
  2.500E+00  4.75889E-04  5.33172E-15  1.90399E+02 -1.25536E-05  1.0E-07
  2.600E+00  5.14715E-04  5.29586E-15  1.89119E+02 -1.31906E-05  1.0E-07
  2.700E+00  5.55063E-04  5.25997E-15  1.87837E+02 -1.38397E-05  1.0E-07
  2.800E+00  5.96931E-04  5.22410E-15  1.86556E+02 -1.45009E-05  1.0E-07
  2.900E+00  6.40321E-04  5.18833E-15  1.85279E+02 -1.51739E-05  1.0E-07
  3.000E+00  6.85233E-04  5.15271E-15  1.84006E+02 -1.58587E-05  1.0E-07
  3.100E+00  7.31665E-04  5.11726E-15  1.82741E+02 -1.65552E-05  1.0E-07
  3.200E+00  7.79618E-04  5.08204E-15  1.81483E+02 -1.72632E-05  1.0E-07
  3.300E+00  8.29092E-04  5.04706E-15  1.80234E+02 -1.79828E-05  1.0E-07
  3.400E+00  8.80086E-04  5.01235E-15  1.78994E+02 -1.87137E-05  1.0E-07
  3.500E+00  9.32601E-04  4.97792E-15  1.77765E+02 -1.94560E-05  1.0E-07
  3.600E+00  9.86636E-04  4.94378E-15  1.76546E+02 -2.02095E-05  1.0E-07
  3.700E+00  1.04219E-03  4.90993E-15  1.75337E+02 -2.09742E-05  1.0E-07
  3.800E+00  1.09927E-03  4.87637E-15  1.74138E+02 -2.17502E-05  1.0E-07
  3.900E+00  1.15786E-03  4.84309E-15  1.72950E+02 -2.25375E-05  1.0E-07
  4.000E+00  1.21797E-03  4.81009E-15  1.71771E+02 -2.33361E-05  1.0E-07
  4.100E+00  1.27961E-03  4.77734E-15  1.70602E+02 -2.41462E-05  1.0E-07
  4.200E+00  1.34276E-03  4.74484E-15  1.69441E+02 -2.49678E-05  1.0E-07
  4.300E+00  1.40743E-03  4.71256E-15  1.68289E+02 -2.58012E-05  1.0E-07
  4.400E+00  1.47362E-03  4.68049E-15  1.67143E+02 -2.66465E-05  1.0E-07
  4.500E+00  1.54133E-03  4.64861E-15  1.66005E+02 -2.75040E-05  1.0E-07
  4.600E+00  1.61056E-03  4.61689E-15  1.64872E+02 -2.83739E-05  1.0E-07
  4.700E+00  1.68131E-03  4.58532E-15  1.63745E+02 -2.92564E-05  1.0E-07
  4.800E+00  1.75357E-03  4.55388E-15  1.62622E+02 -3.01520E-05  1.0E-07
  4.900E+00  1.82735E-03  4.52255E-15  1.61503E+02 -3.10608E-05  1.0E-07
  5.000E+00  1.90265E-03  4.49132E-15  1.60388E+02 -3.19833E-05  1.0E-07
  5.100E+00  1.97947E-03  4.46016E-15  1.59275E+02 -3.29197E-05  1.0E-07
  5.200E+00  2.05780E-03  4.42907E-15  1.58165E+02 -3.38705E-05  1.0E-07
  5.300E+00  2.13765E-03  4.39804E-15  1.57057E+02 -3.48359E-05  1.0E-07
  5.400E+00  2.21902E-03  4.36705E-15  1.55950E+02 -3.58163E-05  1.0E-07
  5.500E+00  2.30190E-03  4.33610E-15  1.54845E+02 -3.68120E-05  1.0E-07
  5.600E+00  2.38630E-03  4.30518E-15  1.53741E+02 -3.78233E-05  1.0E-07
  5.700E+00  2.47222E-03  4.27430E-15  1.52638E+02 -3.88506E-05  1.0E-07
  5.800E+00  2.55965E-03  4.24345E-15  1.51536E+02 -3.98941E-05  1.0E-07
  5.900E+00  2.64859E-03  4.21263E-15  1.50436E+02 -4.09540E-05  1.0E-07
  6.000E+00  2.73905E-03  4.18185E-15  1.49336E+02 -4.20308E-05  1.0E-07
  6.100E+00  2.83103E-03  4.15110E-15  1.48238E+02 -4.31245E-05  1.0E-07
  6.200E+00  2.92452E-03  4.12040E-15  1.47142E+02 -4.42354E-05  1.0E-07
  6.300E+00  3.01952E-03  4.08975E-15  1.46048E+02 -4.53636E-05  1.0E-07
  6.400E+00  3.11604E-03  4.05916E-15  1.44955E+02 -4.65094E-05  1.0E-07
  6.500E+00  3.21407E-03  4.02863E-15  1.43865E+02 -4.76728E-05  1.0E-07
  6.600E+00  3.31362E-03  3.99819E-15  1.42778E+02 -4.88541E-05  1.0E-07
  6.700E+00  3.41468E-03  3.96782E-15  1.41693E+02 -5.00532E-05  1.0E-07
  6.800E+00  3.51725E-03  3.93755E-15  1.40612E+02 -5.12704E-05  1.0E-07
  6.900E+00  3.62133E-03  3.90738E-15  1.39535E+02 -5.25056E-05  1.0E-07
  7.000E+00  3.72692E-03  3.87732E-15  1.38461E+02 -5.37590E-05  1.0E-07
  7.100E+00  3.83403E-03  3.84737E-15  1.37392E+02 -5.50306E-05  1.0E-07
  7.200E+00  3.94265E-03  3.81755E-15  1.36327E+02 -5.63206E-05  1.0E-07
  7.300E+00  4.05278E-03  3.78785E-15  1.35267E+02 -5.76290E-05  1.0E-07
  7.400E+00  4.16442E-03  3.75829E-15  1.34211E+02 -5.89559E-05  1.0E-07
  7.500E+00  4.27757E-03  3.72887E-15  1.33160E+02 -6.03014E-05  1.0E-07
  7.600E+00  4.39223E-03  3.69959E-15  1.32115E+02 -6.16656E-05  1.0E-07
  7.700E+00  4.50840E-03  3.67046E-15  1.31074E+02 -6.30487E-05  1.0E-07
  7.800E+00  4.62608E-03  3.64147E-15  1.30039E+02 -6.44509E-05  1.0E-07
  7.900E+00  4.74527E-03  3.61262E-15  1.29009E+02 -6.58722E-05  1.0E-07
  8.000E+00  4.86597E-03  3.58392E-15  1.27984E+02 -6.73130E-05  1.0E-07
  8.100E+00  4.98817E-03  3.55536E-15  1.26964E+02 -6.87735E-05  1.0E-07
  8.200E+00  5.11188E-03  3.52695E-15  1.25950E+02 -7.02539E-05  1.0E-07
  8.300E+00  5.23711E-03  3.49867E-15  1.24940E+02 -7.17545E-05  1.0E-07
  8.400E+00  5.36383E-03  3.47052E-15  1.23935E+02 -7.32757E-05  1.0E-07
  8.500E+00  5.49207E-03  3.44251E-15  1.22934E+02 -7.48178E-05  1.0E-07
  8.600E+00  5.62181E-03  3.41462E-15  1.21938E+02 -7.63813E-05  1.0E-07
  8.700E+00  5.75306E-03  3.38686E-15  1.20947E+02 -7.79663E-05  1.0E-07
  8.800E+00  5.88581E-03  3.35922E-15  1.19960E+02 -7.95736E-05  1.0E-07
  8.900E+00  6.02007E-03  3.33169E-15  1.18977E+02 -8.12033E-05  1.0E-07
  9.000E+00  6.15583E-03  3.30428E-15  1.17998E+02 -8.28561E-05  1.0E-07
  9.100E+00  6.29310E-03  3.27697E-15  1.17023E+02 -8.45323E-05  1.0E-07
  9.200E+00  6.43187E-03  3.24976E-15  1.16051E+02 -8.62325E-05  1.0E-07
  9.300E+00  6.57214E-03  3.22266E-15  1.15083E+02 -8.79571E-05  1.0E-07
  9.400E+00  6.71392E-03  3.19566E-15  1.14119E+02 -8.97066E-05  1.0E-07
  9.500E+00  6.85720E-03  3.16875E-15  1.13158E+02 -9.14816E-05  1.0E-07
  9.600E+00  7.00198E-03  3.14194E-15  1.12201E+02 -9.32824E-05  1.0E-07
  9.700E+00  7.14827E-03  3.11522E-15  1.11246E+02 -9.51095E-05  1.0E-07
  9.800E+00  7.29605E-03  3.08860E-15  1.10296E+02 -9.69635E-05  1.0E-07
  9.900E+00  7.44534E-03  3.06207E-15  1.09348E+02 -9.88447E-05  1.0E-07
  1.000E+01  7.59612E-03  3.03563E-15  1.08404E+02 -1.00754E-04  1.0E-07
  1.025E+01  7.97965E-03  2.96998E-15  1.06060E+02 -1.05650E-04  1.0E-07
  1.050E+01  8.37255E-03  2.90495E-15  1.03738E+02 -1.10727E-04  1.0E-07
  1.075E+01  8.77480E-03  2.84060E-15  1.01440E+02 -1.15992E-04  1.0E-07
  1.100E+01  9.18641E-03  2.77696E-15  9.91671E+01 -1.21449E-04  1.0E-07
  1.125E+01  9.60736E-03  2.71408E-15  9.69217E+01 -1.27102E-04  1.0E-07
  1.150E+01  1.00376E-02  2.65200E-15  9.47048E+01 -1.32958E-04  1.0E-07
  1.175E+01  1.04773E-02  2.59074E-15  9.25171E+01 -1.39022E-04  1.0E-07
  1.200E+01  1.09262E-02  2.53032E-15  9.03592E+01 -1.45300E-04  1.0E-07
  1.225E+01  1.13844E-02  2.47072E-15  8.82311E+01 -1.51799E-04  1.0E-07
  1.250E+01  1.18520E-02  2.41195E-15  8.61322E+01 -1.58530E-04  1.0E-07
  1.275E+01  1.23288E-02  2.35398E-15  8.40621E+01 -1.65501E-04  1.0E-07
  1.300E+01  1.28150E-02  2.29679E-15  8.20199E+01 -1.72726E-04  1.0E-07
  1.325E+01  1.33104E-02  2.24037E-15  8.00049E+01 -1.80216E-04  1.0E-07
  1.350E+01  1.38150E-02  2.18468E-15  7.80164E+01 -1.87985E-04  1.0E-07
  1.375E+01  1.43290E-02  2.12973E-15  7.60540E+01 -1.96046E-04  1.0E-07
  1.400E+01  1.48521E-02  2.07551E-15  7.41177E+01 -2.04414E-04  1.0E-07
