 #
 # Subroutine ELSEPA. Elastic scattering of electrons and positrons
 #                    by neutral atoms and positive ions
 #
 # Projectile: electron
 # Kinetic energy = 1.70000E+01 eV = 6.24739E-01 a.u.
 #
 #  ***  WARNING: Energy is too low.
 #                The reliability of the results is questionable.
 #
 # Element: Hg,  Z =  80,  atomic weight = 2.00590E+02 g/mol
 #
 # Nuclear model: Fermi distribution
 #                Average radius = 6.26355E-13 cm
 #                Skin thickness = 5.46000E-14 cm
 #
 # Number of electrons = 80
 #
 # Electron density: Read from file z_080.den   
 #                   Number of data points =  763
 #                   Volume integral = 8.00000E+01
 #
 # Furness-McCarthy exchange potential
 #
 # Correlation-polarization potential (LDA):
 #                           Alpha = 5.10000E-24 cm**3
 #                            Bpol = 1.00000E+00
 #
 # Total elastic cross section = 7.72539E-16 cm**2 = 2.75879E+01 a0**2
 # 1st transport cross section = 4.54673E-16 cm**2 = 1.62367E+01 a0**2
 # 2nd transport cross section = 1.97212E-16 cm**2 = 7.04256E+00 a0**2
 #
 #
 # Differential cross section:                       MU=(1-COS(THETA))/2
 #
 #  THETA        MU          DCS          DCS        Sherman      error
 #  (deg)                 (cm**2/sr)   (a0**2/sr)    function
 #----------------------------------------------------------------------
  0.000E+00  0.00000E+00  3.44247E-15  1.22933E+02  0.00000E+00  1.0E-07
  1.000E-04  7.61557E-13  3.44247E-15  1.22933E+02  5.56715E-08  1.0E-07
  1.250E-04  1.18994E-12  3.44247E-15  1.22933E+02  6.95893E-08  1.0E-07
  1.500E-04  1.71346E-12  3.44247E-15  1.22933E+02  8.35072E-08  1.0E-07
  1.750E-04  2.33225E-12  3.44247E-15  1.22933E+02  9.74251E-08  1.0E-07
  2.000E-04  3.04617E-12  3.44247E-15  1.22933E+02  1.11343E-07  1.0E-07
  2.250E-04  3.85530E-12  3.44247E-15  1.22933E+02  1.25261E-07  1.0E-07
  2.500E-04  4.75964E-12  3.44247E-15  1.22933E+02  1.39179E-07  1.0E-07
  2.750E-04  5.75917E-12  3.44247E-15  1.22933E+02  1.53097E-07  1.0E-07
  3.000E-04  6.85391E-12  3.44247E-15  1.22933E+02  1.67014E-07  1.0E-07
  3.250E-04  8.04379E-12  3.44247E-15  1.22933E+02  1.80932E-07  1.0E-07
  3.500E-04  9.32893E-12  3.44247E-15  1.22933E+02  1.94850E-07  1.0E-07
  3.750E-04  1.07092E-11  3.44247E-15  1.22933E+02  2.08768E-07  1.0E-07
  4.000E-04  1.21847E-11  3.44247E-15  1.22933E+02  2.22686E-07  1.0E-07
  4.250E-04  1.37554E-11  3.44247E-15  1.22933E+02  2.36604E-07  1.0E-07
  4.500E-04  1.54213E-11  3.44247E-15  1.22933E+02  2.50522E-07  1.0E-07
  4.750E-04  1.71823E-11  3.44247E-15  1.22933E+02  2.64440E-07  1.0E-07
  5.000E-04  1.90386E-11  3.44247E-15  1.22933E+02  2.78357E-07  1.0E-07
  5.250E-04  2.09900E-11  3.44247E-15  1.22933E+02  2.92275E-07  1.0E-07
  5.500E-04  2.30367E-11  3.44247E-15  1.22933E+02  3.06193E-07  1.0E-07
  5.750E-04  2.51785E-11  3.44247E-15  1.22933E+02  3.20111E-07  1.0E-07
  6.000E-04  2.74156E-11  3.44247E-15  1.22933E+02  3.34029E-07  1.0E-07
  6.250E-04  2.97478E-11  3.44247E-15  1.22933E+02  3.47947E-07  1.0E-07
  6.500E-04  3.21752E-11  3.44247E-15  1.22933E+02  3.61865E-07  1.0E-07
  6.750E-04  3.46979E-11  3.44247E-15  1.22933E+02  3.75782E-07  1.0E-07
  7.000E-04  3.73157E-11  3.44247E-15  1.22933E+02  3.89700E-07  1.0E-07
  7.250E-04  4.00286E-11  3.44247E-15  1.22933E+02  4.03618E-07  1.0E-07
  7.500E-04  4.28368E-11  3.44247E-15  1.22933E+02  4.17536E-07  1.0E-07
  7.750E-04  4.57402E-11  3.44247E-15  1.22933E+02  4.31454E-07  1.0E-07
  8.000E-04  4.87388E-11  3.44247E-15  1.22933E+02  4.45372E-07  1.0E-07
  8.250E-04  5.18325E-11  3.44247E-15  1.22933E+02  4.59290E-07  1.0E-07
  8.500E-04  5.50215E-11  3.44247E-15  1.22933E+02  4.73208E-07  1.0E-07
  8.750E-04  5.83057E-11  3.44247E-15  1.22933E+02  4.87125E-07  1.0E-07
  9.000E-04  6.16850E-11  3.44247E-15  1.22933E+02  5.01043E-07  1.0E-07
  9.250E-04  6.51595E-11  3.44247E-15  1.22933E+02  5.14961E-07  1.0E-07
  9.500E-04  6.87293E-11  3.44247E-15  1.22933E+02  5.28879E-07  1.0E-07
  9.750E-04  7.23943E-11  3.44247E-15  1.22933E+02  5.42797E-07  1.0E-07
  1.000E-03  7.61544E-11  3.44247E-15  1.22933E+02  5.56715E-07  1.0E-07
  1.250E-03  1.18991E-10  3.44247E-15  1.22933E+02  6.95893E-07  1.0E-07
  1.500E-03  1.71347E-10  3.44247E-15  1.22933E+02  8.35072E-07  1.0E-07
  1.750E-03  2.33223E-10  3.44247E-15  1.22933E+02  9.74251E-07  1.0E-07
  2.000E-03  3.04617E-10  3.44247E-15  1.22933E+02  1.11343E-06  1.0E-07
  2.250E-03  3.85531E-10  3.44247E-15  1.22933E+02  1.25261E-06  1.0E-07
  2.500E-03  4.75965E-10  3.44247E-15  1.22933E+02  1.39179E-06  1.0E-07
  2.750E-03  5.75917E-10  3.44247E-15  1.22933E+02  1.53097E-06  1.0E-07
  3.000E-03  6.85389E-10  3.44247E-15  1.22933E+02  1.67014E-06  1.0E-07
  3.250E-03  8.04380E-10  3.44247E-15  1.22933E+02  1.80932E-06  1.0E-07
  3.500E-03  9.32891E-10  3.44247E-15  1.22933E+02  1.94850E-06  1.0E-07
  3.750E-03  1.07092E-09  3.44247E-15  1.22933E+02  2.08768E-06  1.0E-07
  4.000E-03  1.21847E-09  3.44247E-15  1.22933E+02  2.22686E-06  1.0E-07
  4.250E-03  1.37554E-09  3.44247E-15  1.22933E+02  2.36604E-06  1.0E-07
  4.500E-03  1.54213E-09  3.44247E-15  1.22933E+02  2.50522E-06  1.0E-07
  4.750E-03  1.71823E-09  3.44247E-15  1.22933E+02  2.64440E-06  1.0E-07
  5.000E-03  1.90386E-09  3.44247E-15  1.22933E+02  2.78357E-06  1.0E-07
  5.250E-03  2.09900E-09  3.44247E-15  1.22933E+02  2.92275E-06  1.0E-07
  5.500E-03  2.30367E-09  3.44247E-15  1.22933E+02  3.06193E-06  1.0E-07
  5.750E-03  2.51785E-09  3.44247E-15  1.22933E+02  3.20111E-06  1.0E-07
  6.000E-03  2.74156E-09  3.44247E-15  1.22933E+02  3.34029E-06  1.0E-07
  6.250E-03  2.97478E-09  3.44246E-15  1.22933E+02  3.47947E-06  1.0E-07
  6.500E-03  3.21752E-09  3.44246E-15  1.22933E+02  3.61865E-06  1.0E-07
  6.750E-03  3.46978E-09  3.44246E-15  1.22933E+02  3.75783E-06  1.0E-07
  7.000E-03  3.73156E-09  3.44246E-15  1.22933E+02  3.89701E-06  1.0E-07
  7.250E-03  4.00286E-09  3.44246E-15  1.22933E+02  4.03618E-06  1.0E-07
  7.500E-03  4.28368E-09  3.44246E-15  1.22933E+02  4.17536E-06  1.0E-07
  7.750E-03  4.57402E-09  3.44246E-15  1.22933E+02  4.31454E-06  1.0E-07
  8.000E-03  4.87388E-09  3.44246E-15  1.22933E+02  4.45372E-06  1.0E-07
  8.250E-03  5.18326E-09  3.44246E-15  1.22933E+02  4.59290E-06  1.0E-07
  8.500E-03  5.50215E-09  3.44246E-15  1.22933E+02  4.73208E-06  1.0E-07
  8.750E-03  5.83057E-09  3.44246E-15  1.22933E+02  4.87126E-06  1.0E-07
  9.000E-03  6.16850E-09  3.44246E-15  1.22932E+02  5.01044E-06  1.0E-07
  9.250E-03  6.51596E-09  3.44246E-15  1.22932E+02  5.14962E-06  1.0E-07
  9.500E-03  6.87293E-09  3.44246E-15  1.22932E+02  5.28879E-06  1.0E-07
  9.750E-03  7.23942E-09  3.44246E-15  1.22932E+02  5.42797E-06  1.0E-07
  1.000E-02  7.61544E-09  3.44246E-15  1.22932E+02  5.56715E-06  1.0E-07
  1.250E-02  1.18991E-08  3.44245E-15  1.22932E+02  6.95894E-06  1.0E-07
  1.500E-02  1.71347E-08  3.44244E-15  1.22932E+02  8.35074E-06  1.0E-07
  1.750E-02  2.33223E-08  3.44244E-15  1.22932E+02  9.74254E-06  1.0E-07
  2.000E-02  3.04617E-08  3.44243E-15  1.22931E+02  1.11343E-05  1.0E-07
  2.250E-02  3.85531E-08  3.44241E-15  1.22931E+02  1.25261E-05  1.0E-07
  2.500E-02  4.75965E-08  3.44240E-15  1.22930E+02  1.39179E-05  1.0E-07
  2.750E-02  5.75917E-08  3.44239E-15  1.22930E+02  1.53098E-05  1.0E-07
  3.000E-02  6.85389E-08  3.44237E-15  1.22929E+02  1.67016E-05  1.0E-07
  3.250E-02  8.04380E-08  3.44236E-15  1.22929E+02  1.80934E-05  1.0E-07
  3.500E-02  9.32891E-08  3.44234E-15  1.22928E+02  1.94852E-05  1.0E-07
  3.750E-02  1.07092E-07  3.44232E-15  1.22927E+02  2.08771E-05  1.0E-07
  4.000E-02  1.21847E-07  3.44230E-15  1.22927E+02  2.22689E-05  1.0E-07
  4.250E-02  1.37554E-07  3.44228E-15  1.22926E+02  2.36608E-05  1.0E-07
  4.500E-02  1.54213E-07  3.44225E-15  1.22925E+02  2.50526E-05  1.0E-07
  4.750E-02  1.71823E-07  3.44223E-15  1.22924E+02  2.64445E-05  1.0E-07
  5.000E-02  1.90386E-07  3.44220E-15  1.22923E+02  2.78364E-05  1.0E-07
  5.250E-02  2.09900E-07  3.44217E-15  1.22922E+02  2.92283E-05  1.0E-07
  5.500E-02  2.30367E-07  3.44214E-15  1.22921E+02  3.06201E-05  1.0E-07
  5.750E-02  2.51785E-07  3.44211E-15  1.22920E+02  3.20121E-05  1.0E-07
  6.000E-02  2.74156E-07  3.44208E-15  1.22919E+02  3.34040E-05  1.0E-07
  6.250E-02  2.97478E-07  3.44205E-15  1.22918E+02  3.47959E-05  1.0E-07
  6.500E-02  3.21752E-07  3.44202E-15  1.22917E+02  3.61878E-05  1.0E-07
  6.750E-02  3.46978E-07  3.44198E-15  1.22915E+02  3.75798E-05  1.0E-07
  7.000E-02  3.73156E-07  3.44194E-15  1.22914E+02  3.89718E-05  1.0E-07
  7.250E-02  4.00286E-07  3.44191E-15  1.22913E+02  4.03637E-05  1.0E-07
  7.500E-02  4.28368E-07  3.44187E-15  1.22911E+02  4.17557E-05  1.0E-07
  7.750E-02  4.57402E-07  3.44182E-15  1.22910E+02  4.31477E-05  1.0E-07
  8.000E-02  4.87388E-07  3.44178E-15  1.22908E+02  4.45397E-05  1.0E-07
  8.250E-02  5.18325E-07  3.44174E-15  1.22907E+02  4.59318E-05  1.0E-07
  8.500E-02  5.50215E-07  3.44169E-15  1.22905E+02  4.73238E-05  1.0E-07
  8.750E-02  5.83057E-07  3.44165E-15  1.22903E+02  4.87159E-05  1.0E-07
  9.000E-02  6.16850E-07  3.44160E-15  1.22902E+02  5.01080E-05  1.0E-07
  9.250E-02  6.51596E-07  3.44155E-15  1.22900E+02  5.15001E-05  1.0E-07
  9.500E-02  6.87293E-07  3.44150E-15  1.22898E+02  5.28922E-05  1.0E-07
  9.750E-02  7.23942E-07  3.44145E-15  1.22896E+02  5.42843E-05  1.0E-07
  1.000E-01  7.61543E-07  3.44140E-15  1.22895E+02  5.56765E-05  1.0E-07
  1.250E-01  1.18991E-06  3.44079E-15  1.22873E+02  6.95991E-05  1.0E-07
  1.500E-01  1.71347E-06  3.44006E-15  1.22847E+02  8.35241E-05  1.0E-07
  1.750E-01  2.33223E-06  3.43919E-15  1.22816E+02  9.74519E-05  1.0E-07
  2.000E-01  3.04617E-06  3.43819E-15  1.22780E+02  1.11383E-04  1.0E-07
  2.250E-01  3.85531E-06  3.43705E-15  1.22739E+02  1.25318E-04  1.0E-07
  2.500E-01  4.75964E-06  3.43579E-15  1.22694E+02  1.39257E-04  1.0E-07
  2.750E-01  5.75916E-06  3.43439E-15  1.22644E+02  1.53201E-04  1.0E-07
  3.000E-01  6.85388E-06  3.43286E-15  1.22590E+02  1.67149E-04  1.0E-07
  3.250E-01  8.04378E-06  3.43120E-15  1.22530E+02  1.81104E-04  1.0E-07
  3.500E-01  9.32888E-06  3.42941E-15  1.22467E+02  1.95064E-04  1.0E-07
  3.750E-01  1.07092E-05  3.42750E-15  1.22398E+02  2.09031E-04  1.0E-07
  4.000E-01  1.21846E-05  3.42545E-15  1.22325E+02  2.23005E-04  1.0E-07
  4.250E-01  1.37553E-05  3.42328E-15  1.22248E+02  2.36986E-04  1.0E-07
  4.500E-01  1.54212E-05  3.42098E-15  1.22165E+02  2.50975E-04  1.0E-07
  4.750E-01  1.71822E-05  3.41856E-15  1.22079E+02  2.64972E-04  1.0E-07
  5.000E-01  1.90385E-05  3.41601E-15  1.21988E+02  2.78978E-04  1.0E-07
  5.250E-01  2.09899E-05  3.41334E-15  1.21893E+02  2.92993E-04  1.0E-07
  5.500E-01  2.30365E-05  3.41055E-15  1.21793E+02  3.07017E-04  1.0E-07
  5.750E-01  2.51783E-05  3.40763E-15  1.21689E+02  3.21051E-04  1.0E-07
  6.000E-01  2.74153E-05  3.40460E-15  1.21580E+02  3.35096E-04  1.0E-07
  6.250E-01  2.97475E-05  3.40144E-15  1.21468E+02  3.49151E-04  1.0E-07
  6.500E-01  3.21749E-05  3.39817E-15  1.21351E+02  3.63218E-04  1.0E-07
  6.750E-01  3.46974E-05  3.39478E-15  1.21230E+02  3.77296E-04  1.0E-07
  7.000E-01  3.73152E-05  3.39128E-15  1.21105E+02  3.91386E-04  1.0E-07
  7.250E-01  4.00281E-05  3.38766E-15  1.20976E+02  4.05488E-04  1.0E-07
  7.500E-01  4.28362E-05  3.38394E-15  1.20843E+02  4.19603E-04  1.0E-07
  7.750E-01  4.57395E-05  3.38010E-15  1.20705E+02  4.33731E-04  1.0E-07
  8.000E-01  4.87380E-05  3.37615E-15  1.20564E+02  4.47872E-04  1.0E-07
  8.250E-01  5.18317E-05  3.37209E-15  1.20420E+02  4.62028E-04  1.0E-07
  8.500E-01  5.50205E-05  3.36793E-15  1.20271E+02  4.76197E-04  1.0E-07
  8.750E-01  5.83045E-05  3.36366E-15  1.20119E+02  4.90381E-04  1.0E-07
  9.000E-01  6.16838E-05  3.35929E-15  1.19962E+02  5.04579E-04  1.0E-07
  9.250E-01  6.51582E-05  3.35482E-15  1.19803E+02  5.18793E-04  1.0E-07
  9.500E-01  6.87277E-05  3.35025E-15  1.19639E+02  5.33022E-04  1.0E-07
  9.750E-01  7.23925E-05  3.34558E-15  1.19473E+02  5.47267E-04  1.0E-07
  1.000E+00  7.61524E-05  3.34081E-15  1.19302E+02  5.61528E-04  1.0E-07
  1.100E+00  9.21439E-05  3.32081E-15  1.18588E+02  6.18738E-04  1.0E-07
  1.200E+00  1.09658E-04  3.29942E-15  1.17824E+02  6.76228E-04  1.0E-07
  1.300E+00  1.28695E-04  3.27674E-15  1.17015E+02  7.34014E-04  1.0E-07
  1.400E+00  1.49255E-04  3.25290E-15  1.16163E+02  7.92110E-04  1.0E-07
  1.500E+00  1.71338E-04  3.22803E-15  1.15275E+02  8.50526E-04  1.0E-07
  1.600E+00  1.94942E-04  3.20224E-15  1.14354E+02  9.09274E-04  1.0E-07
  1.700E+00  2.20070E-04  3.17565E-15  1.13405E+02  9.68361E-04  1.0E-07
  1.800E+00  2.46720E-04  3.14840E-15  1.12431E+02  1.02779E-03  1.0E-07
  1.900E+00  2.74892E-04  3.12059E-15  1.11438E+02  1.08757E-03  1.0E-07
  2.000E+00  3.04586E-04  3.09234E-15  1.10429E+02  1.14770E-03  1.0E-07
  2.100E+00  3.35803E-04  3.06375E-15  1.09408E+02  1.20818E-03  1.0E-07
  2.200E+00  3.68542E-04  3.03492E-15  1.08379E+02  1.26901E-03  1.0E-07
  2.300E+00  4.02802E-04  3.00595E-15  1.07344E+02  1.33018E-03  1.0E-07
  2.400E+00  4.38585E-04  2.97692E-15  1.06308E+02  1.39170E-03  1.0E-07
  2.500E+00  4.75889E-04  2.94791E-15  1.05272E+02  1.45356E-03  1.0E-07
  2.600E+00  5.14715E-04  2.91899E-15  1.04239E+02  1.51576E-03  1.0E-07
  2.700E+00  5.55063E-04  2.89022E-15  1.03212E+02  1.57828E-03  1.0E-07
  2.800E+00  5.96931E-04  2.86166E-15  1.02192E+02  1.64113E-03  1.0E-07
  2.900E+00  6.40321E-04  2.83336E-15  1.01181E+02  1.70430E-03  1.0E-07
  3.000E+00  6.85233E-04  2.80534E-15  1.00180E+02  1.76778E-03  1.0E-07
  3.100E+00  7.31665E-04  2.77764E-15  9.91912E+01  1.83157E-03  1.0E-07
  3.200E+00  7.79618E-04  2.75028E-15  9.82142E+01  1.89566E-03  1.0E-07
  3.300E+00  8.29092E-04  2.72328E-15  9.72500E+01  1.96005E-03  1.0E-07
  3.400E+00  8.80086E-04  2.69664E-15  9.62989E+01  2.02473E-03  1.0E-07
  3.500E+00  9.32601E-04  2.67038E-15  9.53610E+01  2.08971E-03  1.0E-07
  3.600E+00  9.86636E-04  2.64449E-15  9.44363E+01  2.15498E-03  1.0E-07
  3.700E+00  1.04219E-03  2.61896E-15  9.35247E+01  2.22053E-03  1.0E-07
  3.800E+00  1.09927E-03  2.59378E-15  9.26256E+01  2.28638E-03  1.0E-07
  3.900E+00  1.15786E-03  2.56895E-15  9.17387E+01  2.35252E-03  1.0E-07
  4.000E+00  1.21797E-03  2.54444E-15  9.08634E+01  2.41895E-03  1.0E-07
  4.100E+00  1.27961E-03  2.52023E-15  8.99991E+01  2.48567E-03  1.0E-07
  4.200E+00  1.34276E-03  2.49632E-15  8.91451E+01  2.55268E-03  1.0E-07
  4.300E+00  1.40743E-03  2.47267E-15  8.83008E+01  2.62000E-03  1.0E-07
  4.400E+00  1.47362E-03  2.44928E-15  8.74652E+01  2.68762E-03  1.0E-07
  4.500E+00  1.54133E-03  2.42611E-15  8.66379E+01  2.75555E-03  1.0E-07
  4.600E+00  1.61056E-03  2.40315E-15  8.58180E+01  2.82379E-03  1.0E-07
  4.700E+00  1.68131E-03  2.38038E-15  8.50050E+01  2.89235E-03  1.0E-07
  4.800E+00  1.75357E-03  2.35779E-15  8.41982E+01  2.96123E-03  1.0E-07
  4.900E+00  1.82735E-03  2.33536E-15  8.33971E+01  3.03044E-03  1.0E-07
  5.000E+00  1.90265E-03  2.31307E-15  8.26011E+01  3.09997E-03  1.0E-07
  5.100E+00  1.97947E-03  2.29091E-15  8.18100E+01  3.16985E-03  1.0E-07
  5.200E+00  2.05780E-03  2.26888E-15  8.10233E+01  3.24006E-03  1.0E-07
  5.300E+00  2.13765E-03  2.24697E-15  8.02408E+01  3.31062E-03  1.0E-07
  5.400E+00  2.21902E-03  2.22517E-15  7.94623E+01  3.38153E-03  1.0E-07
  5.500E+00  2.30190E-03  2.20348E-15  7.86877E+01  3.45278E-03  1.0E-07
  5.600E+00  2.38630E-03  2.18190E-15  7.79169E+01  3.52439E-03  1.0E-07
  5.700E+00  2.47222E-03  2.16042E-15  7.71500E+01  3.59636E-03  1.0E-07
  5.800E+00  2.55965E-03  2.13905E-15  7.63869E+01  3.66867E-03  1.0E-07
  5.900E+00  2.64859E-03  2.11779E-15  7.56278E+01  3.74135E-03  1.0E-07
  6.000E+00  2.73905E-03  2.09666E-15  7.48729E+01  3.81437E-03  1.0E-07
  6.100E+00  2.83103E-03  2.07564E-15  7.41224E+01  3.88776E-03  1.0E-07
  6.200E+00  2.92452E-03  2.05475E-15  7.33764E+01  3.96150E-03  1.0E-07
  6.300E+00  3.01952E-03  2.03399E-15  7.26352E+01  4.03559E-03  1.0E-07
  6.400E+00  3.11604E-03  2.01338E-15  7.18991E+01  4.11004E-03  1.0E-07
  6.500E+00  3.21407E-03  1.99292E-15  7.11683E+01  4.18483E-03  1.0E-07
  6.600E+00  3.31362E-03  1.97260E-15  7.04430E+01  4.25998E-03  1.0E-07
  6.700E+00  3.41468E-03  1.95245E-15  6.97234E+01  4.33547E-03  1.0E-07
  6.800E+00  3.51725E-03  1.93247E-15  6.90098E+01  4.41131E-03  1.0E-07
  6.900E+00  3.62133E-03  1.91266E-15  6.83023E+01  4.48750E-03  1.0E-07
  7.000E+00  3.72692E-03  1.89302E-15  6.76011E+01  4.56402E-03  1.0E-07
  7.100E+00  3.83403E-03  1.87357E-15  6.69064E+01  4.64089E-03  1.0E-07
  7.200E+00  3.94265E-03  1.85430E-15  6.62181E+01  4.71810E-03  1.0E-07
  7.300E+00  4.05278E-03  1.83521E-15  6.55364E+01  4.79565E-03  1.0E-07
  7.400E+00  4.16442E-03  1.81630E-15  6.48613E+01  4.87355E-03  1.0E-07
  7.500E+00  4.27757E-03  1.79758E-15  6.41927E+01  4.95178E-03  1.0E-07
  7.600E+00  4.39223E-03  1.77904E-15  6.35307E+01  5.03035E-03  1.0E-07
  7.700E+00  4.50840E-03  1.76069E-15  6.28752E+01  5.10927E-03  1.0E-07
  7.800E+00  4.62608E-03  1.74251E-15  6.22261E+01  5.18852E-03  1.0E-07
  7.900E+00  4.74527E-03  1.72451E-15  6.15832E+01  5.26813E-03  1.0E-07
  8.000E+00  4.86597E-03  1.70667E-15  6.09464E+01  5.34808E-03  1.0E-07
  8.100E+00  4.98817E-03  1.68901E-15  6.03157E+01  5.42837E-03  1.0E-07
  8.200E+00  5.11188E-03  1.67151E-15  5.96907E+01  5.50902E-03  1.0E-07
  8.300E+00  5.23711E-03  1.65416E-15  5.90713E+01  5.59002E-03  1.0E-07
  8.400E+00  5.36383E-03  1.63697E-15  5.84574E+01  5.67138E-03  1.0E-07
  8.500E+00  5.49207E-03  1.61993E-15  5.78487E+01  5.75309E-03  1.0E-07
  8.600E+00  5.62181E-03  1.60303E-15  5.72452E+01  5.83516E-03  1.0E-07
  8.700E+00  5.75306E-03  1.58627E-15  5.66466E+01  5.91760E-03  1.0E-07
  8.800E+00  5.88581E-03  1.56964E-15  5.60527E+01  6.00040E-03  1.0E-07
  8.900E+00  6.02007E-03  1.55314E-15  5.54635E+01  6.08357E-03  1.0E-07
  9.000E+00  6.15583E-03  1.53676E-15  5.48788E+01  6.16710E-03  1.0E-07
  9.100E+00  6.29310E-03  1.52051E-15  5.42984E+01  6.25100E-03  1.0E-07
  9.200E+00  6.43187E-03  1.50438E-15  5.37224E+01  6.33528E-03  1.0E-07
  9.300E+00  6.57214E-03  1.48837E-15  5.31506E+01  6.41993E-03  1.0E-07
  9.400E+00  6.71392E-03  1.47247E-15  5.25830E+01  6.50495E-03  1.0E-07
  9.500E+00  6.85720E-03  1.45669E-15  5.20195E+01  6.59034E-03  1.0E-07
  9.600E+00  7.00198E-03  1.44103E-15  5.14601E+01  6.67610E-03  1.0E-07
  9.700E+00  7.14827E-03  1.42548E-15  5.09048E+01  6.76224E-03  1.0E-07
  9.800E+00  7.29605E-03  1.41005E-15  5.03537E+01  6.84875E-03  1.0E-07
  9.900E+00  7.44534E-03  1.39473E-15  4.98067E+01  6.93563E-03  1.0E-07
  1.000E+01  7.59612E-03  1.37953E-15  4.92639E+01  7.02288E-03  1.0E-07
  1.025E+01  7.97965E-03  1.34205E-15  4.79255E+01  7.24263E-03  1.0E-07
  1.050E+01  8.37255E-03  1.30533E-15  4.66143E+01  7.46467E-03  1.0E-07
  1.075E+01  8.77480E-03  1.26941E-15  4.53313E+01  7.68899E-03  1.0E-07
  1.100E+01  9.18641E-03  1.23428E-15  4.40771E+01  7.91558E-03  1.0E-07
  1.125E+01  9.60736E-03  1.19997E-15  4.28519E+01  8.14442E-03  1.0E-07
  1.150E+01  1.00376E-02  1.16648E-15  4.16557E+01  8.37551E-03  1.0E-07
  1.175E+01  1.04773E-02  1.13378E-15  4.04879E+01  8.60886E-03  1.0E-07
  1.200E+01  1.09262E-02  1.10185E-15  3.93477E+01  8.84446E-03  1.0E-07
  1.225E+01  1.13844E-02  1.07066E-15  3.82340E+01  9.08231E-03  1.0E-07
  1.250E+01  1.18520E-02  1.04018E-15  3.71455E+01  9.32239E-03  1.0E-07
  1.275E+01  1.23288E-02  1.01037E-15  3.60811E+01  9.56469E-03  1.0E-07
  1.300E+01  1.28150E-02  9.81209E-16  3.50396E+01  9.80918E-03  1.0E-07
  1.325E+01  1.33104E-02  9.52666E-16  3.40203E+01  1.00558E-02  1.0E-07
  1.350E+01  1.38150E-02  9.24727E-16  3.30226E+01  1.03045E-02  1.0E-07
  1.375E+01  1.43290E-02  8.97385E-16  3.20462E+01  1.05553E-02  1.0E-07
  1.400E+01  1.48521E-02  8.70640E-16  3.10911E+01  1.08081E-02  1.0E-07
  1.425E+01  1.53845E-02  8.44493E-16  3.01574E+01  1.10627E-02  1.0E-07
  1.450E+01  1.59262E-02  8.18950E-16  2.92452E+01  1.13193E-02  1.0E-07
