 #
 # Subroutine ELSEPA. Elastic scattering of electrons and positrons
 #                    by neutral atoms and positive ions
 #
 # Projectile: electron
 # Kinetic energy = 2.50000E+03 eV = 9.18733E+01 a.u.
 #
 # Element: Hg,  Z =  80,  atomic weight = 2.00590E+02 g/mol
 #
 # Nuclear model: Fermi distribution
 #                Average radius = 6.26355E-13 cm
 #                Skin thickness = 5.46000E-14 cm
 #
 # Number of electrons = 80
 #
 # Electron density: Read from file z_080.den   
 #                   Number of data points =  763
 #                   Volume integral = 8.00000E+01
 #
 # Furness-McCarthy exchange potential
 #
 # Correlation-polarization potential (LDA):
 #                           Alpha = 5.10000E-24 cm**3
 #                            Bpol = 1.23744E+01
 #
 # Total elastic cross section = 1.74342E-16 cm**2 = 6.22587E+00 a0**2
 # 1st transport cross section = 2.83118E-17 cm**2 = 1.01103E+00 a0**2
 # 2nd transport cross section = 2.79269E-17 cm**2 = 9.97288E-01 a0**2
 #
 #
 # Differential cross section:                       MU=(1-COS(THETA))/2
 #
 #  THETA        MU          DCS          DCS        Sherman      error
 #  (deg)                 (cm**2/sr)   (a0**2/sr)    function
 #----------------------------------------------------------------------
  0.000E+00  0.00000E+00  7.82724E-15  2.79516E+02  0.00000E+00  3.4E-05
  1.000E-04  7.61557E-13  7.82724E-15  2.79516E+02  2.97990E-09  3.4E-05
  1.250E-04  1.18994E-12  7.82724E-15  2.79516E+02  3.72487E-09  3.4E-05
  1.500E-04  1.71346E-12  7.82724E-15  2.79516E+02  4.46985E-09  3.4E-05
  1.750E-04  2.33225E-12  7.82724E-15  2.79516E+02  5.21482E-09  3.4E-05
  2.000E-04  3.04617E-12  7.82724E-15  2.79516E+02  5.95980E-09  3.4E-05
  2.250E-04  3.85530E-12  7.82724E-15  2.79516E+02  6.70477E-09  3.4E-05
  2.500E-04  4.75964E-12  7.82723E-15  2.79516E+02  7.44974E-09  3.4E-05
  2.750E-04  5.75917E-12  7.82723E-15  2.79516E+02  8.19472E-09  3.4E-05
  3.000E-04  6.85391E-12  7.82723E-15  2.79516E+02  8.93969E-09  3.4E-05
  3.250E-04  8.04379E-12  7.82723E-15  2.79516E+02  9.68467E-09  3.4E-05
  3.500E-04  9.32893E-12  7.82723E-15  2.79516E+02  1.04296E-08  3.4E-05
  3.750E-04  1.07092E-11  7.82723E-15  2.79516E+02  1.11746E-08  3.4E-05
  4.000E-04  1.21847E-11  7.82723E-15  2.79516E+02  1.19196E-08  3.4E-05
  4.250E-04  1.37554E-11  7.82723E-15  2.79516E+02  1.26646E-08  3.4E-05
  4.500E-04  1.54213E-11  7.82723E-15  2.79516E+02  1.34095E-08  3.4E-05
  4.750E-04  1.71823E-11  7.82723E-15  2.79516E+02  1.41545E-08  3.4E-05
  5.000E-04  1.90386E-11  7.82723E-15  2.79516E+02  1.48995E-08  3.4E-05
  5.250E-04  2.09900E-11  7.82723E-15  2.79516E+02  1.56445E-08  3.4E-05
  5.500E-04  2.30367E-11  7.82723E-15  2.79516E+02  1.63894E-08  3.4E-05
  5.750E-04  2.51785E-11  7.82723E-15  2.79516E+02  1.71344E-08  3.4E-05
  6.000E-04  2.74156E-11  7.82723E-15  2.79516E+02  1.78794E-08  3.4E-05
  6.250E-04  2.97478E-11  7.82723E-15  2.79515E+02  1.86244E-08  3.4E-05
  6.500E-04  3.21752E-11  7.82723E-15  2.79515E+02  1.93693E-08  3.4E-05
  6.750E-04  3.46979E-11  7.82723E-15  2.79515E+02  2.01143E-08  3.4E-05
  7.000E-04  3.73157E-11  7.82723E-15  2.79515E+02  2.08593E-08  3.4E-05
  7.250E-04  4.00286E-11  7.82723E-15  2.79515E+02  2.16043E-08  3.4E-05
  7.500E-04  4.28368E-11  7.82723E-15  2.79515E+02  2.23492E-08  3.4E-05
  7.750E-04  4.57402E-11  7.82723E-15  2.79515E+02  2.30942E-08  3.4E-05
  8.000E-04  4.87388E-11  7.82723E-15  2.79515E+02  2.38392E-08  3.4E-05
  8.250E-04  5.18325E-11  7.82723E-15  2.79515E+02  2.45842E-08  3.4E-05
  8.500E-04  5.50215E-11  7.82723E-15  2.79515E+02  2.53291E-08  3.4E-05
  8.750E-04  5.83057E-11  7.82723E-15  2.79515E+02  2.60741E-08  3.4E-05
  9.000E-04  6.16850E-11  7.82723E-15  2.79515E+02  2.68191E-08  3.4E-05
  9.250E-04  6.51595E-11  7.82723E-15  2.79515E+02  2.75641E-08  3.4E-05
  9.500E-04  6.87293E-11  7.82722E-15  2.79515E+02  2.83090E-08  3.4E-05
  9.750E-04  7.23943E-11  7.82722E-15  2.79515E+02  2.90540E-08  3.4E-05
  1.000E-03  7.61544E-11  7.82722E-15  2.79515E+02  2.97990E-08  3.4E-05
  1.250E-03  1.18991E-10  7.82722E-15  2.79515E+02  3.72488E-08  3.4E-05
  1.500E-03  1.71347E-10  7.82721E-15  2.79515E+02  4.46985E-08  3.4E-05
  1.750E-03  2.33223E-10  7.82720E-15  2.79514E+02  5.21483E-08  3.4E-05
  2.000E-03  3.04617E-10  7.82719E-15  2.79514E+02  5.95981E-08  3.4E-05
  2.250E-03  3.85531E-10  7.82717E-15  2.79513E+02  6.70479E-08  3.4E-05
  2.500E-03  4.75965E-10  7.82716E-15  2.79513E+02  7.44977E-08  3.4E-05
  2.750E-03  5.75917E-10  7.82714E-15  2.79512E+02  8.19476E-08  3.4E-05
  3.000E-03  6.85389E-10  7.82712E-15  2.79512E+02  8.93975E-08  3.4E-05
  3.250E-03  8.04380E-10  7.82711E-15  2.79511E+02  9.68473E-08  3.4E-05
  3.500E-03  9.32891E-10  7.82708E-15  2.79510E+02  1.04297E-07  3.4E-05
  3.750E-03  1.07092E-09  7.82706E-15  2.79509E+02  1.11747E-07  3.4E-05
  4.000E-03  1.21847E-09  7.82704E-15  2.79509E+02  1.19197E-07  3.4E-05
  4.250E-03  1.37554E-09  7.82701E-15  2.79508E+02  1.26647E-07  3.4E-05
  4.500E-03  1.54213E-09  7.82699E-15  2.79507E+02  1.34097E-07  3.4E-05
  4.750E-03  1.71823E-09  7.82696E-15  2.79506E+02  1.41547E-07  3.4E-05
  5.000E-03  1.90386E-09  7.82693E-15  2.79505E+02  1.48997E-07  3.4E-05
  5.250E-03  2.09900E-09  7.82690E-15  2.79504E+02  1.56447E-07  3.4E-05
  5.500E-03  2.30367E-09  7.82686E-15  2.79502E+02  1.63898E-07  3.4E-05
  5.750E-03  2.51785E-09  7.82683E-15  2.79501E+02  1.71348E-07  3.4E-05
  6.000E-03  2.74156E-09  7.82679E-15  2.79500E+02  1.78798E-07  3.4E-05
  6.250E-03  2.97478E-09  7.82675E-15  2.79498E+02  1.86248E-07  3.4E-05
  6.500E-03  3.21752E-09  7.82671E-15  2.79497E+02  1.93699E-07  3.4E-05
  6.750E-03  3.46978E-09  7.82667E-15  2.79496E+02  2.01149E-07  3.4E-05
  7.000E-03  3.73156E-09  7.82663E-15  2.79494E+02  2.08600E-07  3.4E-05
  7.250E-03  4.00286E-09  7.82659E-15  2.79493E+02  2.16050E-07  3.4E-05
  7.500E-03  4.28368E-09  7.82654E-15  2.79491E+02  2.23501E-07  3.4E-05
  7.750E-03  4.57402E-09  7.82650E-15  2.79489E+02  2.30951E-07  3.4E-05
  8.000E-03  4.87388E-09  7.82645E-15  2.79487E+02  2.38402E-07  3.4E-05
  8.250E-03  5.18326E-09  7.82640E-15  2.79486E+02  2.45853E-07  3.4E-05
  8.500E-03  5.50215E-09  7.82635E-15  2.79484E+02  2.53303E-07  3.4E-05
  8.750E-03  5.83057E-09  7.82629E-15  2.79482E+02  2.60754E-07  3.4E-05
  9.000E-03  6.16850E-09  7.82624E-15  2.79480E+02  2.68205E-07  3.4E-05
  9.250E-03  6.51596E-09  7.82618E-15  2.79478E+02  2.75656E-07  3.4E-05
  9.500E-03  6.87293E-09  7.82612E-15  2.79476E+02  2.83107E-07  3.4E-05
  9.750E-03  7.23942E-09  7.82606E-15  2.79474E+02  2.90558E-07  3.4E-05
  1.000E-02  7.61544E-09  7.82600E-15  2.79472E+02  2.98009E-07  3.4E-05
  1.250E-02  1.18991E-08  7.82531E-15  2.79447E+02  3.72526E-07  3.3E-05
  1.500E-02  1.71347E-08  7.82446E-15  2.79417E+02  4.47051E-07  3.3E-05
  1.750E-02  2.33223E-08  7.82346E-15  2.79381E+02  5.21588E-07  3.3E-05
  2.000E-02  3.04617E-08  7.82231E-15  2.79340E+02  5.96137E-07  3.3E-05
  2.250E-02  3.85531E-08  7.82100E-15  2.79293E+02  6.70701E-07  3.3E-05
  2.500E-02  4.75965E-08  7.81955E-15  2.79241E+02  7.45282E-07  3.3E-05
  2.750E-02  5.75917E-08  7.81794E-15  2.79184E+02  8.19881E-07  3.3E-05
  3.000E-02  6.85389E-08  7.81617E-15  2.79121E+02  8.94500E-07  3.2E-05
  3.250E-02  8.04380E-08  7.81426E-15  2.79052E+02  9.69141E-07  3.2E-05
  3.500E-02  9.32891E-08  7.81220E-15  2.78979E+02  1.04381E-06  3.2E-05
  3.750E-02  1.07092E-07  7.80998E-15  2.78900E+02  1.11850E-06  3.2E-05
  4.000E-02  1.21847E-07  7.80762E-15  2.78815E+02  1.19322E-06  3.2E-05
  4.250E-02  1.37554E-07  7.80511E-15  2.78725E+02  1.26796E-06  3.1E-05
  4.500E-02  1.54213E-07  7.80245E-15  2.78631E+02  1.34274E-06  3.1E-05
  4.750E-02  1.71823E-07  7.79964E-15  2.78530E+02  1.41755E-06  3.1E-05
  5.000E-02  1.90386E-07  7.79669E-15  2.78425E+02  1.49240E-06  3.0E-05
  5.250E-02  2.09900E-07  7.79359E-15  2.78314E+02  1.56728E-06  3.0E-05
  5.500E-02  2.30367E-07  7.79034E-15  2.78198E+02  1.64220E-06  3.0E-05
  5.750E-02  2.51785E-07  7.78695E-15  2.78077E+02  1.71716E-06  2.9E-05
  6.000E-02  2.74156E-07  7.78342E-15  2.77951E+02  1.79216E-06  2.9E-05
  6.250E-02  2.97478E-07  7.77974E-15  2.77820E+02  1.86721E-06  2.9E-05
  6.500E-02  3.21752E-07  7.77593E-15  2.77683E+02  1.94230E-06  2.8E-05
  6.750E-02  3.46978E-07  7.77197E-15  2.77542E+02  2.01744E-06  2.8E-05
  7.000E-02  3.73156E-07  7.76788E-15  2.77396E+02  2.09262E-06  2.7E-05
  7.250E-02  4.00286E-07  7.76364E-15  2.77245E+02  2.16786E-06  2.7E-05
  7.500E-02  4.28368E-07  7.75927E-15  2.77089E+02  2.24315E-06  2.7E-05
  7.750E-02  4.57402E-07  7.75476E-15  2.76928E+02  2.31849E-06  2.6E-05
  8.000E-02  4.87388E-07  7.75012E-15  2.76762E+02  2.39389E-06  2.6E-05
  8.250E-02  5.18325E-07  7.74535E-15  2.76591E+02  2.46934E-06  2.5E-05
  8.500E-02  5.50215E-07  7.74044E-15  2.76416E+02  2.54485E-06  2.5E-05
  8.750E-02  5.83057E-07  7.73540E-15  2.76236E+02  2.62042E-06  2.4E-05
  9.000E-02  6.16850E-07  7.73023E-15  2.76051E+02  2.69606E-06  2.4E-05
  9.250E-02  6.51596E-07  7.72493E-15  2.75862E+02  2.77176E-06  2.3E-05
  9.500E-02  6.87293E-07  7.71951E-15  2.75669E+02  2.84752E-06  2.3E-05
  9.750E-02  7.23942E-07  7.71396E-15  2.75470E+02  2.92335E-06  2.2E-05
  1.000E-01  7.61543E-07  7.70828E-15  2.75268E+02  2.99924E-06  2.2E-05
  1.250E-01  1.18991E-06  7.64503E-15  2.73009E+02  3.76229E-06  1.6E-05
  1.500E-01  1.71347E-06  7.57108E-15  2.70368E+02  4.53374E-06  9.5E-06
  1.750E-01  2.33223E-06  7.48816E-15  2.67407E+02  5.31488E-06  3.3E-06
  2.000E-01  3.04617E-06  7.39812E-15  2.64192E+02  6.10679E-06  2.4E-06
  2.250E-01  3.85531E-06  7.30282E-15  2.60788E+02  6.91037E-06  7.3E-06
  2.500E-01  4.75964E-06  7.20405E-15  2.57261E+02  7.72627E-06  1.1E-05
  2.750E-01  5.75916E-06  7.10349E-15  2.53670E+02  8.55497E-06  1.3E-05
  3.000E-01  6.85388E-06  7.00264E-15  2.50069E+02  9.39670E-06  1.4E-05
  3.250E-01  8.04378E-06  6.90278E-15  2.46503E+02  1.02515E-05  1.4E-05
  3.500E-01  9.32888E-06  6.80496E-15  2.43010E+02  1.11194E-05  1.2E-05
  3.750E-01  1.07092E-05  6.70999E-15  2.39618E+02  1.19999E-05  9.1E-06
  4.000E-01  1.21846E-05  6.61840E-15  2.36347E+02  1.28928E-05  5.5E-06
  4.250E-01  1.37553E-05  6.53054E-15  2.33210E+02  1.37976E-05  1.5E-06
  4.500E-01  1.54212E-05  6.44650E-15  2.30209E+02  1.47138E-05  2.4E-06
  4.750E-01  1.71822E-05  6.36625E-15  2.27343E+02  1.56408E-05  6.0E-06
  5.000E-01  1.90385E-05  6.28958E-15  2.24605E+02  1.65780E-05  8.8E-06
  5.250E-01  2.09899E-05  6.21620E-15  2.21985E+02  1.75251E-05  1.1E-05
  5.500E-01  2.30365E-05  6.14576E-15  2.19469E+02  1.84815E-05  1.1E-05
  5.750E-01  2.51783E-05  6.07786E-15  2.17044E+02  1.94469E-05  1.1E-05
  6.000E-01  2.74153E-05  6.01213E-15  2.14697E+02  2.04209E-05  9.5E-06
  6.250E-01  2.97475E-05  5.94821E-15  2.12414E+02  2.14034E-05  7.1E-06
  6.500E-01  3.21749E-05  5.88579E-15  2.10185E+02  2.23943E-05  4.1E-06
  6.750E-01  3.46974E-05  5.82462E-15  2.08001E+02  2.33934E-05  8.1E-07
  7.000E-01  3.73152E-05  5.76454E-15  2.05855E+02  2.44008E-05  2.5E-06
  7.250E-01  4.00281E-05  5.70542E-15  2.03744E+02  2.54165E-05  5.5E-06
  7.500E-01  4.28362E-05  5.64722E-15  2.01666E+02  2.64406E-05  7.9E-06
  7.750E-01  4.57395E-05  5.58994E-15  1.99621E+02  2.74732E-05  9.4E-06
  8.000E-01  4.87380E-05  5.53362E-15  1.97609E+02  2.85143E-05  1.0E-05
  8.250E-01  5.18317E-05  5.47833E-15  1.95635E+02  2.95640E-05  9.6E-06
  8.500E-01  5.50205E-05  5.42414E-15  1.93700E+02  3.06223E-05  8.2E-06
  8.750E-01  5.83045E-05  5.37114E-15  1.91807E+02  3.16891E-05  6.1E-06
  9.000E-01  6.16838E-05  5.31938E-15  1.89958E+02  3.27645E-05  3.3E-06
  9.250E-01  6.51582E-05  5.26890E-15  1.88156E+02  3.38484E-05  3.5E-07
  9.500E-01  6.87277E-05  5.21973E-15  1.86400E+02  3.49406E-05  2.6E-06
  9.750E-01  7.23925E-05  5.17184E-15  1.84690E+02  3.60411E-05  5.3E-06
  1.000E+00  7.61524E-05  5.12519E-15  1.83024E+02  3.71496E-05  7.4E-06
  1.100E+00  9.21439E-05  4.94941E-15  1.76747E+02  4.16614E-05  7.4E-06
  1.200E+00  1.09658E-04  4.78625E-15  1.70920E+02  4.62932E-05  2.8E-06
  1.300E+00  1.28695E-04  4.63142E-15  1.65391E+02  5.10447E-05  8.6E-06
  1.400E+00  1.49255E-04  4.48452E-15  1.60145E+02  5.59207E-05  2.3E-06
  1.500E+00  1.71338E-04  4.34654E-15  1.55218E+02  6.09247E-05  6.9E-06
  1.600E+00  1.94942E-04  4.21672E-15  1.50582E+02  6.60567E-05  6.2E-06
  1.700E+00  2.20070E-04  4.09267E-15  1.46152E+02  7.13163E-05  3.0E-06
  1.800E+00  2.46720E-04  3.97258E-15  1.41863E+02  7.67070E-05  7.8E-06
  1.900E+00  2.74892E-04  3.85642E-15  1.37715E+02  8.22359E-05  1.6E-06
  2.000E+00  3.04586E-04  3.74474E-15  1.33727E+02  8.79098E-05  6.7E-06
  2.100E+00  3.35803E-04  3.63725E-15  1.29889E+02  9.37321E-05  5.5E-06
  2.200E+00  3.68542E-04  3.53282E-15  1.26159E+02  9.97049E-05  3.4E-06
  2.300E+00  4.02802E-04  3.43066E-15  1.22511E+02  1.05833E-04  7.4E-06
  2.400E+00  4.38585E-04  3.33090E-15  1.18949E+02  1.12124E-04  1.0E-06
  2.500E+00  4.75889E-04  3.23395E-15  1.15486E+02  1.18587E-04  6.7E-06
  2.600E+00  5.14715E-04  3.13968E-15  1.12120E+02  1.25226E-04  4.9E-06
  2.700E+00  5.55063E-04  3.04752E-15  1.08829E+02  1.32043E-04  3.7E-06
  2.800E+00  5.96931E-04  2.95710E-15  1.05600E+02  1.39044E-04  7.1E-06
  2.900E+00  6.40321E-04  2.86861E-15  1.02440E+02  1.46236E-04  4.8E-07
  3.000E+00  6.85233E-04  2.78235E-15  9.93595E+01  1.53627E-04  6.8E-06
  3.100E+00  7.31665E-04  2.69826E-15  9.63566E+01  1.61223E-04  4.5E-06
  3.200E+00  7.79618E-04  2.61601E-15  9.34195E+01  1.69024E-04  4.1E-06
  3.300E+00  8.29092E-04  2.53543E-15  9.05420E+01  1.77035E-04  6.9E-06
  3.400E+00  8.80086E-04  2.45669E-15  8.77299E+01  1.85262E-04  1.0E-07
  3.500E+00  9.32601E-04  2.37999E-15  8.49909E+01  1.93714E-04  7.0E-06
  3.600E+00  9.86636E-04  2.30529E-15  8.23236E+01  2.02394E-04  4.1E-06
  3.700E+00  1.04219E-03  2.23239E-15  7.97202E+01  2.11301E-04  4.6E-06
  3.800E+00  1.09927E-03  2.16118E-15  7.71773E+01  2.20440E-04  6.8E-06
  3.900E+00  1.15786E-03  2.09179E-15  7.46992E+01  2.29815E-04  5.6E-07
  4.000E+00  1.21797E-03  2.02434E-15  7.22906E+01  2.39433E-04  7.2E-06
  4.100E+00  1.27961E-03  1.95879E-15  6.99498E+01  2.49296E-04  3.7E-06
  4.200E+00  1.34276E-03  1.89499E-15  6.76713E+01  2.59402E-04  5.1E-06
  4.300E+00  1.40743E-03  1.83287E-15  6.54528E+01  2.69752E-04  6.7E-06
  4.400E+00  1.47362E-03  1.77250E-15  6.32973E+01  2.80350E-04  1.1E-06
  4.500E+00  1.54133E-03  1.71398E-15  6.12072E+01  2.91201E-04  7.5E-06
  4.600E+00  1.61056E-03  1.65723E-15  5.91807E+01  3.02305E-04  3.3E-06
  4.700E+00  1.68131E-03  1.60213E-15  5.72132E+01  3.13658E-04  5.6E-06
  4.800E+00  1.75357E-03  1.54864E-15  5.53029E+01  3.25256E-04  6.7E-06
  4.900E+00  1.82735E-03  1.49679E-15  5.34515E+01  3.37105E-04  1.7E-06
  5.000E+00  1.90265E-03  1.44663E-15  5.16599E+01  3.49207E-04  7.8E-06
  5.100E+00  1.97947E-03  1.39807E-15  4.99261E+01  3.61558E-04  2.9E-06
  5.200E+00  2.05780E-03  1.35104E-15  4.82464E+01  3.74150E-04  6.1E-06
  5.300E+00  2.13765E-03  1.30547E-15  4.66193E+01  3.86979E-04  6.6E-06
  5.400E+00  2.21902E-03  1.26140E-15  4.50454E+01  4.00046E-04  2.3E-06
  5.500E+00  2.30190E-03  1.21882E-15  4.35249E+01  4.13353E-04  8.1E-06
  5.600E+00  2.38630E-03  1.17768E-15  4.20555E+01  4.26893E-04  2.5E-06
  5.700E+00  2.47222E-03  1.13788E-15  4.06344E+01  4.40652E-04  6.7E-06
  5.800E+00  2.55965E-03  1.09940E-15  3.92601E+01  4.54622E-04  6.5E-06
  5.900E+00  2.64859E-03  1.06222E-15  3.79327E+01  4.68806E-04  2.9E-06
  6.000E+00  2.73905E-03  1.02636E-15  3.66518E+01  4.83200E-04  8.4E-06
  6.100E+00  2.83103E-03  9.91731E-16  3.54154E+01  4.97793E-04  2.0E-06
  6.200E+00  2.92452E-03  9.58282E-16  3.42209E+01  5.12567E-04  7.3E-06
  6.300E+00  3.01952E-03  9.25973E-16  3.30671E+01  5.27511E-04  6.4E-06
  6.400E+00  3.11604E-03  8.94799E-16  3.19538E+01  5.42623E-04  3.6E-06
  6.500E+00  3.21407E-03  8.64739E-16  3.08804E+01  5.57900E-04  8.7E-06
  6.600E+00  3.31362E-03  8.35743E-16  2.98449E+01  5.73323E-04  1.5E-06
  6.700E+00  3.41468E-03  8.07754E-16  2.88454E+01  5.88869E-04  8.0E-06
  6.800E+00  3.51725E-03  7.80742E-16  2.78808E+01  6.04521E-04  6.3E-06
  6.900E+00  3.62133E-03  7.54695E-16  2.69506E+01  6.20279E-04  4.4E-06
  7.000E+00  3.72692E-03  7.29590E-16  2.60541E+01  6.36134E-04  9.0E-06
  7.100E+00  3.83403E-03  7.05384E-16  2.51897E+01  6.52061E-04  9.2E-07
  7.200E+00  3.94265E-03  6.82030E-16  2.43557E+01  6.68029E-04  8.6E-06
  7.300E+00  4.05278E-03  6.59503E-16  2.35513E+01  6.84019E-04  6.1E-06
  7.400E+00  4.16442E-03  6.37789E-16  2.27759E+01  7.00027E-04  5.2E-06
  7.500E+00  4.27757E-03  6.16865E-16  2.20286E+01  7.16043E-04  9.3E-06
  7.600E+00  4.39223E-03  5.96693E-16  2.13083E+01  7.32032E-04  2.8E-07
  7.700E+00  4.50840E-03  5.77237E-16  2.06135E+01  7.47956E-04  9.3E-06
  7.800E+00  4.62608E-03  5.58476E-16  1.99436E+01  7.63791E-04  5.8E-06
  7.900E+00  4.74527E-03  5.40395E-16  1.92979E+01  7.79534E-04  6.0E-06
  8.000E+00  4.86597E-03  5.22971E-16  1.86756E+01  7.95170E-04  9.5E-06
  8.100E+00  4.98817E-03  5.06175E-16  1.80758E+01  8.10655E-04  4.3E-07
  8.200E+00  5.11188E-03  4.89978E-16  1.74974E+01  8.25940E-04  1.0E-05
  8.300E+00  5.23711E-03  4.74360E-16  1.69397E+01  8.41000E-04  5.5E-06
  8.400E+00  5.36383E-03  4.59308E-16  1.64022E+01  8.55833E-04  6.9E-06
  8.500E+00  5.49207E-03  4.44802E-16  1.58842E+01  8.70416E-04  9.7E-06
  8.600E+00  5.62181E-03  4.30817E-16  1.53848E+01  8.84697E-04  1.2E-06
  8.700E+00  5.75306E-03  4.17331E-16  1.49032E+01  8.98618E-04  1.1E-05
  8.800E+00  5.88581E-03  4.04328E-16  1.44388E+01  9.12151E-04  5.1E-06
  8.900E+00  6.02007E-03  3.91793E-16  1.39912E+01  9.25295E-04  7.8E-06
  9.000E+00  6.15583E-03  3.79710E-16  1.35597E+01  9.38023E-04  9.9E-06
  9.100E+00  6.29310E-03  3.68060E-16  1.31437E+01  9.50271E-04  2.1E-06
  9.200E+00  6.43187E-03  3.56824E-16  1.27424E+01  9.61970E-04  1.1E-05
  9.300E+00  6.57214E-03  3.45990E-16  1.23555E+01  9.73097E-04  4.6E-06
  9.400E+00  6.71392E-03  3.35543E-16  1.19825E+01  9.83648E-04  8.7E-06
  9.500E+00  6.85720E-03  3.25470E-16  1.16227E+01  9.93594E-04  1.0E-05
  9.600E+00  7.00198E-03  3.15755E-16  1.12758E+01  1.00286E-03  3.0E-06
  9.700E+00  7.14827E-03  3.06384E-16  1.09412E+01  1.01136E-03  1.2E-05
  9.800E+00  7.29605E-03  2.97346E-16  1.06184E+01  1.01909E-03  4.1E-06
  9.900E+00  7.44534E-03  2.88629E-16  1.03071E+01  1.02603E-03  9.7E-06
  1.000E+01  7.59612E-03  2.80220E-16  1.00068E+01  1.03216E-03  1.0E-05
  1.025E+01  7.97965E-03  2.60472E-16  9.30161E+00  1.04338E-03  9.9E-06
  1.050E+01  8.37255E-03  2.42413E-16  8.65671E+00  1.04833E-03  9.9E-06
  1.075E+01  8.77480E-03  2.25891E-16  8.06671E+00  1.04621E-03  9.8E-06
  1.100E+01  9.18641E-03  2.10766E-16  7.52659E+00  1.03642E-03  9.7E-06
  1.125E+01  9.60736E-03  1.96914E-16  7.03194E+00  1.01812E-03  9.5E-06
  1.150E+01  1.00376E-02  1.84218E-16  6.57853E+00  9.90756E-04  9.4E-06
  1.175E+01  1.04773E-02  1.72576E-16  6.16279E+00  9.53500E-04  9.2E-06
  1.200E+01  1.09262E-02  1.61889E-16  5.78115E+00  9.05890E-04  9.0E-06
  1.225E+01  1.13844E-02  1.52076E-16  5.43075E+00  8.47136E-04  8.7E-06
  1.250E+01  1.18520E-02  1.43053E-16  5.10853E+00  7.76902E-04  8.5E-06
  1.275E+01  1.23288E-02  1.34756E-16  4.81223E+00  6.94467E-04  8.2E-06
  1.300E+01  1.28150E-02  1.27111E-16  4.53923E+00  5.99649E-04  7.8E-06
  1.325E+01  1.33104E-02  1.20069E-16  4.28775E+00  4.91828E-04  7.5E-06
  1.350E+01  1.38150E-02  1.13567E-16  4.05555E+00  3.70987E-04  7.1E-06
  1.375E+01  1.43290E-02  1.07566E-16  3.84124E+00  2.36632E-04  6.7E-06
  1.400E+01  1.48521E-02  1.02011E-16  3.64288E+00  8.89143E-05  6.3E-06
  1.425E+01  1.53845E-02  9.68730E-17  3.45940E+00 -7.25195E-05  5.8E-06
  1.450E+01  1.59262E-02  9.21050E-17  3.28913E+00 -2.47363E-04  5.3E-06
  1.475E+01  1.64770E-02  8.76845E-17  3.13127E+00 -4.35816E-04  4.8E-06
  1.500E+01  1.70371E-02  8.35706E-17  2.98436E+00 -6.37443E-04  4.3E-06
