 #
 # Subroutine ELSEPA. Elastic scattering of electrons and positrons
 #                    by neutral atoms and positive ions
 #
 # Projectile: electron
 # Kinetic energy = 1.30000E+04 eV = 4.77741E+02 a.u.
 #
 # Element: Hg,  Z =  80,  atomic weight = 2.00590E+02 g/mol
 #
 # Nuclear model: Fermi distribution
 #                Average radius = 6.26355E-13 cm
 #                Skin thickness = 5.46000E-14 cm
 #
 # Number of electrons = 80
 #
 # Electron density: analytical DHFS model
 #                   A1 =  2.09753D-01 ,   ALPHA1 = 2.44080D+01
 #                   A2 =  6.00426D-01 ,   ALPHA2 = 3.96429D+00
 #                   A3 =  1.89821D-01 ,   ALPHA3 = 1.53432D+00
 #                   Volume integral = 8.00000E+01
 #
 # Furness-McCarthy exchange potential
 #
 # Total elastic cross section = 6.77751E-17 cm**2 = 2.42029E+00 a0**2
 # 1st transport cross section = 3.10097E-18 cm**2 = 1.10738E-01 a0**2
 # 2nd transport cross section = 5.15902E-18 cm**2 = 1.84232E-01 a0**2
 #
 #
 # Differential cross section:                       MU=(1-COS(THETA))/2
 #
 #  THETA        MU          DCS          DCS        Sherman      error
 #  (deg)                 (cm**2/sr)   (a0**2/sr)    function
 #----------------------------------------------------------------------
  0.000E+00  0.00000E+00  5.94919E-15  2.12450E+02  0.00000E+00  1.0E-07
  1.000E-04  7.61557E-13  5.94919E-15  2.12450E+02  4.75393E-10  1.0E-07
  1.250E-04  1.18994E-12  5.94919E-15  2.12450E+02  5.94241E-10  1.0E-07
  1.500E-04  1.71346E-12  5.94919E-15  2.12450E+02  7.13090E-10  1.0E-07
  1.750E-04  2.33225E-12  5.94919E-15  2.12450E+02  8.31938E-10  1.0E-07
  2.000E-04  3.04617E-12  5.94919E-15  2.12450E+02  9.50786E-10  1.0E-07
  2.250E-04  3.85530E-12  5.94919E-15  2.12450E+02  1.06963E-09  1.0E-07
  2.500E-04  4.75964E-12  5.94919E-15  2.12450E+02  1.18848E-09  1.0E-07
  2.750E-04  5.75917E-12  5.94919E-15  2.12450E+02  1.30733E-09  1.0E-07
  3.000E-04  6.85391E-12  5.94919E-15  2.12450E+02  1.42618E-09  1.0E-07
  3.250E-04  8.04379E-12  5.94919E-15  2.12450E+02  1.54503E-09  1.0E-07
  3.500E-04  9.32893E-12  5.94919E-15  2.12450E+02  1.66388E-09  1.0E-07
  3.750E-04  1.07092E-11  5.94919E-15  2.12450E+02  1.78272E-09  1.0E-07
  4.000E-04  1.21847E-11  5.94919E-15  2.12450E+02  1.90157E-09  1.0E-07
  4.250E-04  1.37554E-11  5.94919E-15  2.12450E+02  2.02042E-09  1.0E-07
  4.500E-04  1.54213E-11  5.94919E-15  2.12450E+02  2.13927E-09  1.0E-07
  4.750E-04  1.71823E-11  5.94919E-15  2.12450E+02  2.25812E-09  1.0E-07
  5.000E-04  1.90386E-11  5.94919E-15  2.12450E+02  2.37697E-09  1.0E-07
  5.250E-04  2.09900E-11  5.94919E-15  2.12450E+02  2.49581E-09  1.0E-07
  5.500E-04  2.30367E-11  5.94919E-15  2.12450E+02  2.61466E-09  1.0E-07
  5.750E-04  2.51785E-11  5.94919E-15  2.12450E+02  2.73351E-09  1.0E-07
  6.000E-04  2.74156E-11  5.94919E-15  2.12450E+02  2.85236E-09  1.0E-07
  6.250E-04  2.97478E-11  5.94919E-15  2.12450E+02  2.97121E-09  1.0E-07
  6.500E-04  3.21752E-11  5.94919E-15  2.12450E+02  3.09006E-09  1.0E-07
  6.750E-04  3.46979E-11  5.94919E-15  2.12450E+02  3.20890E-09  1.0E-07
  7.000E-04  3.73157E-11  5.94919E-15  2.12450E+02  3.32775E-09  1.0E-07
  7.250E-04  4.00286E-11  5.94919E-15  2.12450E+02  3.44660E-09  1.0E-07
  7.500E-04  4.28368E-11  5.94919E-15  2.12450E+02  3.56545E-09  1.0E-07
  7.750E-04  4.57402E-11  5.94919E-15  2.12450E+02  3.68430E-09  1.0E-07
  8.000E-04  4.87388E-11  5.94919E-15  2.12450E+02  3.80315E-09  1.0E-07
  8.250E-04  5.18325E-11  5.94919E-15  2.12450E+02  3.92199E-09  1.0E-07
  8.500E-04  5.50215E-11  5.94919E-15  2.12450E+02  4.04084E-09  1.0E-07
  8.750E-04  5.83057E-11  5.94919E-15  2.12450E+02  4.15969E-09  1.0E-07
  9.000E-04  6.16850E-11  5.94919E-15  2.12450E+02  4.27854E-09  1.0E-07
  9.250E-04  6.51595E-11  5.94919E-15  2.12450E+02  4.39739E-09  1.0E-07
  9.500E-04  6.87293E-11  5.94919E-15  2.12450E+02  4.51624E-09  1.0E-07
  9.750E-04  7.23943E-11  5.94919E-15  2.12450E+02  4.63508E-09  1.0E-07
  1.000E-03  7.61544E-11  5.94919E-15  2.12450E+02  4.75393E-09  1.0E-07
  1.250E-03  1.18991E-10  5.94919E-15  2.12449E+02  5.94242E-09  1.0E-07
  1.500E-03  1.71347E-10  5.94919E-15  2.12449E+02  7.13090E-09  1.0E-07
  1.750E-03  2.33223E-10  5.94919E-15  2.12449E+02  8.31938E-09  1.0E-07
  2.000E-03  3.04617E-10  5.94919E-15  2.12449E+02  9.50787E-09  1.0E-07
  2.250E-03  3.85531E-10  5.94919E-15  2.12449E+02  1.06964E-08  1.0E-07
  2.500E-03  4.75965E-10  5.94919E-15  2.12449E+02  1.18848E-08  1.0E-07
  2.750E-03  5.75917E-10  5.94918E-15  2.12449E+02  1.30733E-08  1.0E-07
  3.000E-03  6.85389E-10  5.94918E-15  2.12449E+02  1.42618E-08  1.0E-07
  3.250E-03  8.04380E-10  5.94918E-15  2.12449E+02  1.54503E-08  1.0E-07
  3.500E-03  9.32891E-10  5.94918E-15  2.12449E+02  1.66388E-08  1.0E-07
  3.750E-03  1.07092E-09  5.94917E-15  2.12449E+02  1.78273E-08  1.0E-07
  4.000E-03  1.21847E-09  5.94917E-15  2.12449E+02  1.90158E-08  1.0E-07
  4.250E-03  1.37554E-09  5.94917E-15  2.12449E+02  2.02043E-08  1.0E-07
  4.500E-03  1.54213E-09  5.94917E-15  2.12449E+02  2.13928E-08  1.0E-07
  4.750E-03  1.71823E-09  5.94916E-15  2.12448E+02  2.25813E-08  1.0E-07
  5.000E-03  1.90386E-09  5.94916E-15  2.12448E+02  2.37698E-08  1.0E-07
  5.250E-03  2.09900E-09  5.94916E-15  2.12448E+02  2.49583E-08  1.0E-07
  5.500E-03  2.30367E-09  5.94915E-15  2.12448E+02  2.61468E-08  1.0E-07
  5.750E-03  2.51785E-09  5.94915E-15  2.12448E+02  2.73353E-08  1.0E-07
  6.000E-03  2.74156E-09  5.94915E-15  2.12448E+02  2.85238E-08  1.0E-07
  6.250E-03  2.97478E-09  5.94914E-15  2.12448E+02  2.97123E-08  1.0E-07
  6.500E-03  3.21752E-09  5.94914E-15  2.12448E+02  3.09008E-08  1.0E-07
  6.750E-03  3.46978E-09  5.94913E-15  2.12447E+02  3.20893E-08  1.0E-07
  7.000E-03  3.73156E-09  5.94913E-15  2.12447E+02  3.32779E-08  1.0E-07
  7.250E-03  4.00286E-09  5.94912E-15  2.12447E+02  3.44664E-08  1.0E-07
  7.500E-03  4.28368E-09  5.94912E-15  2.12447E+02  3.56549E-08  1.0E-07
  7.750E-03  4.57402E-09  5.94911E-15  2.12447E+02  3.68434E-08  1.0E-07
  8.000E-03  4.87388E-09  5.94911E-15  2.12446E+02  3.80320E-08  1.0E-07
  8.250E-03  5.18326E-09  5.94910E-15  2.12446E+02  3.92205E-08  1.0E-07
  8.500E-03  5.50215E-09  5.94910E-15  2.12446E+02  4.04090E-08  1.0E-07
  8.750E-03  5.83057E-09  5.94909E-15  2.12446E+02  4.15976E-08  1.0E-07
  9.000E-03  6.16850E-09  5.94909E-15  2.12446E+02  4.27861E-08  1.0E-07
  9.250E-03  6.51596E-09  5.94908E-15  2.12445E+02  4.39747E-08  1.0E-07
  9.500E-03  6.87293E-09  5.94907E-15  2.12445E+02  4.51632E-08  1.0E-07
  9.750E-03  7.23942E-09  5.94907E-15  2.12445E+02  4.63518E-08  1.0E-07
  1.000E-02  7.61544E-09  5.94906E-15  2.12445E+02  4.75403E-08  1.0E-07
  1.250E-02  1.18991E-08  5.94898E-15  2.12442E+02  5.94261E-08  1.0E-07
  1.500E-02  1.71347E-08  5.94889E-15  2.12439E+02  7.13124E-08  1.0E-07
  1.750E-02  2.33223E-08  5.94878E-15  2.12435E+02  8.31993E-08  1.0E-07
  2.000E-02  3.04617E-08  5.94866E-15  2.12430E+02  9.50868E-08  1.0E-07
  2.250E-02  3.85531E-08  5.94852E-15  2.12425E+02  1.06975E-07  1.0E-07
  2.500E-02  4.75965E-08  5.94836E-15  2.12420E+02  1.18864E-07  1.0E-07
  2.750E-02  5.75917E-08  5.94818E-15  2.12413E+02  1.30754E-07  1.0E-07
  3.000E-02  6.85389E-08  5.94799E-15  2.12406E+02  1.42646E-07  1.0E-07
  3.250E-02  8.04380E-08  5.94778E-15  2.12399E+02  1.54538E-07  1.0E-07
  3.500E-02  9.32891E-08  5.94755E-15  2.12391E+02  1.66431E-07  1.0E-07
  3.750E-02  1.07092E-07  5.94731E-15  2.12382E+02  1.78326E-07  1.0E-07
  4.000E-02  1.21847E-07  5.94705E-15  2.12373E+02  1.90223E-07  1.0E-07
  4.250E-02  1.37554E-07  5.94677E-15  2.12363E+02  2.02121E-07  1.0E-07
  4.500E-02  1.54213E-07  5.94648E-15  2.12353E+02  2.14020E-07  1.0E-07
  4.750E-02  1.71823E-07  5.94617E-15  2.12342E+02  2.25921E-07  1.0E-07
  5.000E-02  1.90386E-07  5.94584E-15  2.12330E+02  2.37824E-07  1.0E-07
  5.250E-02  2.09900E-07  5.94550E-15  2.12318E+02  2.49729E-07  1.0E-07
  5.500E-02  2.30367E-07  5.94514E-15  2.12305E+02  2.61636E-07  1.0E-07
  5.750E-02  2.51785E-07  5.94476E-15  2.12291E+02  2.73545E-07  1.0E-07
  6.000E-02  2.74156E-07  5.94437E-15  2.12277E+02  2.85457E-07  1.0E-07
  6.250E-02  2.97478E-07  5.94396E-15  2.12263E+02  2.97370E-07  1.0E-07
  6.500E-02  3.21752E-07  5.94353E-15  2.12247E+02  3.09286E-07  1.0E-07
  6.750E-02  3.46978E-07  5.94309E-15  2.12232E+02  3.21205E-07  1.0E-07
  7.000E-02  3.73156E-07  5.94263E-15  2.12215E+02  3.33126E-07  1.0E-07
  7.250E-02  4.00286E-07  5.94215E-15  2.12198E+02  3.45050E-07  1.0E-07
  7.500E-02  4.28368E-07  5.94166E-15  2.12181E+02  3.56976E-07  1.0E-07
  7.750E-02  4.57402E-07  5.94115E-15  2.12162E+02  3.68905E-07  1.0E-07
  8.000E-02  4.87388E-07  5.94062E-15  2.12144E+02  3.80838E-07  1.0E-07
  8.250E-02  5.18325E-07  5.94008E-15  2.12124E+02  3.92773E-07  1.0E-07
  8.500E-02  5.50215E-07  5.93952E-15  2.12104E+02  4.04712E-07  1.0E-07
  8.750E-02  5.83057E-07  5.93894E-15  2.12084E+02  4.16654E-07  1.0E-07
  9.000E-02  6.16850E-07  5.93835E-15  2.12062E+02  4.28599E-07  1.0E-07
  9.250E-02  6.51596E-07  5.93774E-15  2.12041E+02  4.40548E-07  1.0E-07
  9.500E-02  6.87293E-07  5.93711E-15  2.12018E+02  4.52500E-07  1.0E-07
  9.750E-02  7.23942E-07  5.93647E-15  2.11995E+02  4.64456E-07  1.0E-07
  1.000E-01  7.61543E-07  5.93581E-15  2.11972E+02  4.76415E-07  1.0E-07
  1.250E-01  1.18991E-06  5.92831E-15  2.11704E+02  5.96239E-07  1.0E-07
  1.500E-01  1.71347E-06  5.91915E-15  2.11377E+02  7.16542E-07  1.0E-07
  1.750E-01  2.33223E-06  5.90837E-15  2.10992E+02  8.37421E-07  1.0E-07
  2.000E-01  3.04617E-06  5.89596E-15  2.10548E+02  9.58973E-07  1.0E-07
  2.250E-01  3.85531E-06  5.88195E-15  2.10048E+02  1.08130E-06  1.0E-07
  2.500E-01  4.75964E-06  5.86635E-15  2.09491E+02  1.20449E-06  1.0E-07
  2.750E-01  5.75916E-06  5.84919E-15  2.08878E+02  1.32864E-06  1.0E-07
  3.000E-01  6.85388E-06  5.83048E-15  2.08210E+02  1.45386E-06  1.0E-07
  3.250E-01  8.04378E-06  5.81026E-15  2.07488E+02  1.58024E-06  1.0E-07
  3.500E-01  9.32888E-06  5.78855E-15  2.06713E+02  1.70788E-06  1.0E-07
  3.750E-01  1.07092E-05  5.76537E-15  2.05885E+02  1.83688E-06  1.0E-07
  4.000E-01  1.21846E-05  5.74076E-15  2.05006E+02  1.96734E-06  1.0E-07
  4.250E-01  1.37553E-05  5.71475E-15  2.04077E+02  2.09936E-06  1.0E-07
  4.500E-01  1.54212E-05  5.68737E-15  2.03100E+02  2.23304E-06  1.0E-07
  4.750E-01  1.71822E-05  5.65865E-15  2.02074E+02  2.36848E-06  1.0E-07
  5.000E-01  1.90385E-05  5.62863E-15  2.01002E+02  2.50579E-06  1.0E-07
  5.250E-01  2.09899E-05  5.59735E-15  1.99885E+02  2.64507E-06  1.0E-07
  5.500E-01  2.30365E-05  5.56484E-15  1.98724E+02  2.78643E-06  1.0E-07
  5.750E-01  2.51783E-05  5.53115E-15  1.97521E+02  2.92996E-06  1.0E-07
  6.000E-01  2.74153E-05  5.49630E-15  1.96277E+02  3.07578E-06  1.0E-07
  6.250E-01  2.97475E-05  5.46035E-15  1.94993E+02  3.22398E-06  1.0E-07
  6.500E-01  3.21749E-05  5.42334E-15  1.93671E+02  3.37468E-06  1.0E-07
  6.750E-01  3.46974E-05  5.38529E-15  1.92312E+02  3.52799E-06  1.0E-07
  7.000E-01  3.73152E-05  5.34627E-15  1.90919E+02  3.68402E-06  1.0E-07
  7.250E-01  4.00281E-05  5.30630E-15  1.89491E+02  3.84286E-06  1.0E-07
  7.500E-01  4.28362E-05  5.26544E-15  1.88032E+02  4.00465E-06  1.0E-07
  7.750E-01  4.57395E-05  5.22372E-15  1.86543E+02  4.16948E-06  1.0E-07
  8.000E-01  4.87380E-05  5.18119E-15  1.85024E+02  4.33747E-06  1.0E-07
  8.250E-01  5.18317E-05  5.13790E-15  1.83478E+02  4.50873E-06  1.0E-07
  8.500E-01  5.50205E-05  5.09388E-15  1.81906E+02  4.68339E-06  1.0E-07
  8.750E-01  5.83045E-05  5.04918E-15  1.80309E+02  4.86154E-06  1.0E-07
  9.000E-01  6.16838E-05  5.00384E-15  1.78690E+02  5.04333E-06  1.0E-07
  9.250E-01  6.51582E-05  4.95790E-15  1.77050E+02  5.22885E-06  1.0E-07
  9.500E-01  6.87277E-05  4.91142E-15  1.75390E+02  5.41823E-06  1.0E-07
  9.750E-01  7.23925E-05  4.86442E-15  1.73712E+02  5.61159E-06  1.0E-07
  1.000E+00  7.61524E-05  4.81695E-15  1.72016E+02  5.80905E-06  1.0E-07
  1.100E+00  9.21439E-05  4.62318E-15  1.65097E+02  6.64239E-06  1.0E-07
  1.200E+00  1.09658E-04  4.42503E-15  1.58021E+02  7.55138E-06  1.0E-07
  1.300E+00  1.28695E-04  4.22481E-15  1.50871E+02  8.54435E-06  1.0E-07
  1.400E+00  1.49255E-04  4.02457E-15  1.43720E+02  9.62993E-06  1.0E-07
  1.500E+00  1.71338E-04  3.82612E-15  1.36633E+02  1.08171E-05  1.0E-07
  1.600E+00  1.94942E-04  3.63099E-15  1.29665E+02  1.21150E-05  1.0E-07
  1.700E+00  2.20070E-04  3.44045E-15  1.22861E+02  1.35332E-05  1.0E-07
  1.800E+00  2.46720E-04  3.25553E-15  1.16257E+02  1.50816E-05  1.0E-07
  1.900E+00  2.74892E-04  3.07703E-15  1.09883E+02  1.67700E-05  1.0E-07
  2.000E+00  3.04586E-04  2.90554E-15  1.03759E+02  1.86089E-05  1.0E-07
  2.100E+00  3.35803E-04  2.74145E-15  9.78991E+01  2.06087E-05  1.0E-07
  2.200E+00  3.68542E-04  2.58501E-15  9.23125E+01  2.27801E-05  1.0E-07
  2.300E+00  4.02802E-04  2.43633E-15  8.70029E+01  2.51340E-05  1.0E-07
  2.400E+00  4.38585E-04  2.29540E-15  8.19701E+01  2.76815E-05  1.0E-07
  2.500E+00  4.75889E-04  2.16212E-15  7.72107E+01  3.04338E-05  1.0E-07
  2.600E+00  5.14715E-04  2.03633E-15  7.27186E+01  3.34023E-05  1.0E-07
  2.700E+00  5.55063E-04  1.91780E-15  6.84858E+01  3.65984E-05  1.0E-07
  2.800E+00  5.96931E-04  1.80627E-15  6.45030E+01  4.00336E-05  1.0E-07
  2.900E+00  6.40321E-04  1.70144E-15  6.07596E+01  4.37196E-05  1.0E-07
  3.000E+00  6.85233E-04  1.60301E-15  5.72445E+01  4.76682E-05  1.0E-07
  3.100E+00  7.31665E-04  1.51065E-15  5.39462E+01  5.18911E-05  1.0E-07
  3.200E+00  7.79618E-04  1.42403E-15  5.08531E+01  5.64000E-05  1.0E-07
  3.300E+00  8.29092E-04  1.34283E-15  4.79535E+01  6.12070E-05  1.0E-07
  3.400E+00  8.80086E-04  1.26674E-15  4.52362E+01  6.63237E-05  1.0E-07
  3.500E+00  9.32601E-04  1.19544E-15  4.26901E+01  7.17622E-05  1.0E-07
  3.600E+00  9.86636E-04  1.12864E-15  4.03045E+01  7.75341E-05  1.0E-07
  3.700E+00  1.04219E-03  1.06605E-15  3.80693E+01  8.36514E-05  1.0E-07
  3.800E+00  1.09927E-03  1.00739E-15  3.59747E+01  9.01258E-05  1.0E-07
  3.900E+00  1.15786E-03  9.52424E-16  3.40117E+01  9.69689E-05  1.0E-07
  4.000E+00  1.21797E-03  9.00891E-16  3.21714E+01  1.04192E-04  1.0E-07
  4.100E+00  1.27961E-03  8.52570E-16  3.04458E+01  1.11808E-04  1.0E-07
  4.200E+00  1.34276E-03  8.07245E-16  2.88272E+01  1.19826E-04  1.0E-07
  4.300E+00  1.40743E-03  7.64716E-16  2.73085E+01  1.28259E-04  1.0E-07
  4.400E+00  1.47362E-03  7.24796E-16  2.58829E+01  1.37117E-04  1.0E-07
  4.500E+00  1.54133E-03  6.87309E-16  2.45443E+01  1.46412E-04  1.0E-07
  4.600E+00  1.61056E-03  6.52093E-16  2.32867E+01  1.56152E-04  1.0E-07
  4.700E+00  1.68131E-03  6.18996E-16  2.21047E+01  1.66350E-04  1.0E-07
  4.800E+00  1.75357E-03  5.87877E-16  2.09935E+01  1.77014E-04  1.0E-07
  4.900E+00  1.82735E-03  5.58604E-16  1.99481E+01  1.88154E-04  1.0E-07
  5.000E+00  1.90265E-03  5.31056E-16  1.89644E+01  1.99779E-04  1.0E-07
  5.100E+00  1.97947E-03  5.05119E-16  1.80381E+01  2.11898E-04  1.0E-07
  5.200E+00  2.05780E-03  4.80688E-16  1.71657E+01  2.24519E-04  1.0E-07
  5.300E+00  2.13765E-03  4.57664E-16  1.63435E+01  2.37649E-04  1.0E-07
  5.400E+00  2.21902E-03  4.35957E-16  1.55683E+01  2.51295E-04  1.0E-07
  5.500E+00  2.30190E-03  4.15482E-16  1.48371E+01  2.65463E-04  1.0E-07
  5.600E+00  2.38630E-03  3.96161E-16  1.41472E+01  2.80160E-04  1.0E-07
  5.700E+00  2.47222E-03  3.77920E-16  1.34958E+01  2.95391E-04  1.0E-07
  5.800E+00  2.55965E-03  3.60691E-16  1.28805E+01  3.11158E-04  1.0E-07
  5.900E+00  2.64859E-03  3.44411E-16  1.22992E+01  3.27466E-04  1.0E-07
  6.000E+00  2.73905E-03  3.29021E-16  1.17496E+01  3.44317E-04  1.0E-07
  6.100E+00  2.83103E-03  3.14466E-16  1.12298E+01  3.61714E-04  1.0E-07
  6.200E+00  2.92452E-03  3.00694E-16  1.07380E+01  3.79655E-04  1.0E-07
  6.300E+00  3.01952E-03  2.87659E-16  1.02725E+01  3.98142E-04  1.0E-07
  6.400E+00  3.11604E-03  2.75315E-16  9.83167E+00  4.17174E-04  1.0E-07
  6.500E+00  3.21407E-03  2.63620E-16  9.41405E+00  4.36747E-04  1.0E-07
  6.600E+00  3.31362E-03  2.52537E-16  9.01826E+00  4.56858E-04  1.0E-07
  6.700E+00  3.41468E-03  2.42029E-16  8.64300E+00  4.77504E-04  1.0E-07
  6.800E+00  3.51725E-03  2.32061E-16  8.28705E+00  4.98679E-04  1.0E-07
  6.900E+00  3.62133E-03  2.22603E-16  7.94928E+00  5.20376E-04  1.0E-07
  7.000E+00  3.72692E-03  2.13624E-16  7.62864E+00  5.42587E-04  1.0E-07
  7.100E+00  3.83403E-03  2.05097E-16  7.32414E+00  5.65305E-04  1.0E-07
  7.200E+00  3.94265E-03  1.96996E-16  7.03485E+00  5.88518E-04  1.0E-07
  7.300E+00  4.05278E-03  1.89297E-16  6.75990E+00  6.12216E-04  1.0E-07
  7.400E+00  4.16442E-03  1.81976E-16  6.49848E+00  6.36387E-04  1.0E-07
  7.500E+00  4.27757E-03  1.75013E-16  6.24982E+00  6.61017E-04  1.0E-07
  7.600E+00  4.39223E-03  1.68387E-16  6.01321E+00  6.86093E-04  1.0E-07
  7.700E+00  4.50840E-03  1.62080E-16  5.78798E+00  7.11598E-04  1.0E-07
  7.800E+00  4.62608E-03  1.56074E-16  5.57349E+00  7.37516E-04  1.0E-07
  7.900E+00  4.74527E-03  1.50352E-16  5.36916E+00  7.63829E-04  1.0E-07
  8.000E+00  4.86597E-03  1.44899E-16  5.17443E+00  7.90518E-04  1.0E-07
  8.100E+00  4.98817E-03  1.39700E-16  4.98877E+00  8.17565E-04  1.0E-07
  8.200E+00  5.11188E-03  1.34741E-16  4.81170E+00  8.44947E-04  1.0E-07
  8.300E+00  5.23711E-03  1.30010E-16  4.64275E+00  8.72644E-04  1.0E-07
  8.400E+00  5.36383E-03  1.25495E-16  4.48149E+00  9.00632E-04  1.0E-07
  8.500E+00  5.49207E-03  1.21183E-16  4.32751E+00  9.28889E-04  1.0E-07
  8.600E+00  5.62181E-03  1.17064E-16  4.18043E+00  9.57390E-04  1.0E-07
  8.700E+00  5.75306E-03  1.13128E-16  4.03988E+00  9.86110E-04  1.0E-07
  8.800E+00  5.88581E-03  1.09366E-16  3.90552E+00  1.01502E-03  1.0E-07
  8.900E+00  6.02007E-03  1.05768E-16  3.77703E+00  1.04410E-03  1.0E-07
  9.000E+00  6.15583E-03  1.02326E-16  3.65411E+00  1.07332E-03  1.0E-07
  9.100E+00  6.29310E-03  9.90313E-17  3.53647E+00  1.10265E-03  1.0E-07
  9.200E+00  6.43187E-03  9.58774E-17  3.42384E+00  1.13206E-03  1.0E-07
  9.300E+00  6.57214E-03  9.28568E-17  3.31598E+00  1.16152E-03  1.0E-07
  9.400E+00  6.71392E-03  8.99626E-17  3.21262E+00  1.19101E-03  1.0E-07
  9.500E+00  6.85720E-03  8.71887E-17  3.11356E+00  1.22049E-03  1.0E-07
  9.600E+00  7.00198E-03  8.45289E-17  3.01858E+00  1.24993E-03  1.0E-07
  9.700E+00  7.14827E-03  8.19777E-17  2.92748E+00  1.27930E-03  1.0E-07
  9.800E+00  7.29605E-03  7.95297E-17  2.84006E+00  1.30858E-03  1.0E-07
  9.900E+00  7.44534E-03  7.71798E-17  2.75614E+00  1.33772E-03  1.0E-07
  1.000E+01  7.59612E-03  7.49234E-17  2.67556E+00  1.36670E-03  1.0E-07
  1.025E+01  7.97965E-03  6.96619E-17  2.48767E+00  1.43823E-03  1.0E-07
  1.050E+01  8.37255E-03  6.48928E-17  2.31736E+00  1.50804E-03  1.0E-07
  1.075E+01  8.77480E-03  6.05602E-17  2.16264E+00  1.57562E-03  1.0E-07
  1.100E+01  9.18641E-03  5.66155E-17  2.02178E+00  1.64046E-03  1.0E-07
  1.125E+01  9.60736E-03  5.30163E-17  1.89325E+00  1.70207E-03  1.0E-07
  1.150E+01  1.00376E-02  4.97253E-17  1.77572E+00  1.75993E-03  1.0E-07
  1.175E+01  1.04773E-02  4.67100E-17  1.66804E+00  1.81357E-03  1.0E-07
  1.200E+01  1.09262E-02  4.39417E-17  1.56919E+00  1.86251E-03  1.0E-07
  1.225E+01  1.13844E-02  4.13952E-17  1.47825E+00  1.90627E-03  1.0E-07
  1.250E+01  1.18520E-02  3.90483E-17  1.39444E+00  1.94441E-03  1.0E-07
  1.275E+01  1.23288E-02  3.68813E-17  1.31705E+00  1.97647E-03  1.0E-07
  1.300E+01  1.28150E-02  3.48769E-17  1.24548E+00  2.00205E-03  1.0E-07
  1.325E+01  1.33104E-02  3.30198E-17  1.17916E+00  2.02072E-03  1.0E-07
  1.350E+01  1.38150E-02  3.12962E-17  1.11761E+00  2.03210E-03  1.0E-07
  1.375E+01  1.43290E-02  2.96940E-17  1.06039E+00  2.03582E-03  1.0E-07
  1.400E+01  1.48521E-02  2.82023E-17  1.00712E+00  2.03151E-03  1.0E-07
  1.425E+01  1.53845E-02  2.68115E-17  9.57457E-01  2.01885E-03  1.0E-07
  1.450E+01  1.59262E-02  2.55130E-17  9.11085E-01  1.99751E-03  1.0E-07
  1.475E+01  1.64770E-02  2.42988E-17  8.67728E-01  1.96721E-03  1.0E-07
  1.500E+01  1.70371E-02  2.31622E-17  8.27137E-01  1.92765E-03  1.0E-07
