 #
 # Subroutine ELSEPA. Elastic scattering of electrons and positrons
 #                    by neutral atoms and positive ions
 #
 # Projectile: electron
 # Kinetic energy = 6.00000E+02 eV = 2.20496E+01 a.u.
 #
 # Element: Hg,  Z =  80,  atomic weight = 2.00590E+02 g/mol
 #
 # Nuclear model: Fermi distribution
 #                Average radius = 6.26355E-13 cm
 #                Skin thickness = 5.46000E-14 cm
 #
 # Number of electrons = 80
 #
 # Electron density: analytical DHFS model
 #                   A1 =  2.09753D-01 ,   ALPHA1 = 2.44080D+01
 #                   A2 =  6.00426D-01 ,   ALPHA2 = 3.96429D+00
 #                   A3 =  1.89821D-01 ,   ALPHA3 = 1.53432D+00
 #                   Volume integral = 8.00000E+01
 #
 # Furness-McCarthy exchange potential
 #
 # Correlation-polarization potential (Buckingham):
 #                           Alpha = 5.10000E-24 cm**3
 #                            Bpol = 5.86302E+00
 #
 # Total elastic cross section = 3.26503E-16 cm**2 = 1.16596E+01 a0**2
 # 1st transport cross section = 9.66437E-17 cm**2 = 3.45121E+00 a0**2
 # 2nd transport cross section = 1.03528E-16 cm**2 = 3.69705E+00 a0**2
 #
 #
 # Differential cross section:                       MU=(1-COS(THETA))/2
 #
 #  THETA        MU          DCS          DCS        Sherman      error
 #  (deg)                 (cm**2/sr)   (a0**2/sr)    function
 #----------------------------------------------------------------------
  0.000E+00  0.00000E+00  6.11249E-15  2.18281E+02  0.00000E+00  6.5E-07
  1.000E-04  7.61557E-13  6.11249E-15  2.18281E+02 -1.64150E-09  6.5E-07
  1.250E-04  1.18994E-12  6.11249E-15  2.18281E+02 -2.05188E-09  6.5E-07
  1.500E-04  1.71346E-12  6.11249E-15  2.18281E+02 -2.46225E-09  6.5E-07
  1.750E-04  2.33225E-12  6.11249E-15  2.18281E+02 -2.87263E-09  6.5E-07
  2.000E-04  3.04617E-12  6.11249E-15  2.18281E+02 -3.28300E-09  6.5E-07
  2.250E-04  3.85530E-12  6.11249E-15  2.18281E+02 -3.69338E-09  6.5E-07
  2.500E-04  4.75964E-12  6.11249E-15  2.18281E+02 -4.10376E-09  6.5E-07
  2.750E-04  5.75917E-12  6.11249E-15  2.18281E+02 -4.51413E-09  6.5E-07
  3.000E-04  6.85391E-12  6.11249E-15  2.18281E+02 -4.92451E-09  6.5E-07
  3.250E-04  8.04379E-12  6.11249E-15  2.18281E+02 -5.33488E-09  6.5E-07
  3.500E-04  9.32893E-12  6.11249E-15  2.18281E+02 -5.74526E-09  6.5E-07
  3.750E-04  1.07092E-11  6.11249E-15  2.18281E+02 -6.15563E-09  6.5E-07
  4.000E-04  1.21847E-11  6.11249E-15  2.18281E+02 -6.56601E-09  6.5E-07
  4.250E-04  1.37554E-11  6.11249E-15  2.18281E+02 -6.97639E-09  6.5E-07
  4.500E-04  1.54213E-11  6.11249E-15  2.18281E+02 -7.38676E-09  6.5E-07
  4.750E-04  1.71823E-11  6.11249E-15  2.18281E+02 -7.79714E-09  6.5E-07
  5.000E-04  1.90386E-11  6.11249E-15  2.18281E+02 -8.20751E-09  6.5E-07
  5.250E-04  2.09900E-11  6.11249E-15  2.18281E+02 -8.61789E-09  6.5E-07
  5.500E-04  2.30367E-11  6.11249E-15  2.18281E+02 -9.02826E-09  6.5E-07
  5.750E-04  2.51785E-11  6.11249E-15  2.18281E+02 -9.43864E-09  6.5E-07
  6.000E-04  2.74156E-11  6.11249E-15  2.18281E+02 -9.84902E-09  6.5E-07
  6.250E-04  2.97478E-11  6.11249E-15  2.18281E+02 -1.02594E-08  6.5E-07
  6.500E-04  3.21752E-11  6.11249E-15  2.18281E+02 -1.06698E-08  6.5E-07
  6.750E-04  3.46979E-11  6.11249E-15  2.18281E+02 -1.10801E-08  6.5E-07
  7.000E-04  3.73157E-11  6.11249E-15  2.18281E+02 -1.14905E-08  6.5E-07
  7.250E-04  4.00286E-11  6.11249E-15  2.18281E+02 -1.19009E-08  6.5E-07
  7.500E-04  4.28368E-11  6.11249E-15  2.18281E+02 -1.23113E-08  6.5E-07
  7.750E-04  4.57402E-11  6.11249E-15  2.18281E+02 -1.27216E-08  6.5E-07
  8.000E-04  4.87388E-11  6.11249E-15  2.18281E+02 -1.31320E-08  6.5E-07
  8.250E-04  5.18325E-11  6.11249E-15  2.18281E+02 -1.35424E-08  6.5E-07
  8.500E-04  5.50215E-11  6.11249E-15  2.18281E+02 -1.39528E-08  6.5E-07
  8.750E-04  5.83057E-11  6.11249E-15  2.18281E+02 -1.43632E-08  6.5E-07
  9.000E-04  6.16850E-11  6.11249E-15  2.18281E+02 -1.47735E-08  6.5E-07
  9.250E-04  6.51595E-11  6.11249E-15  2.18281E+02 -1.51839E-08  6.5E-07
  9.500E-04  6.87293E-11  6.11249E-15  2.18281E+02 -1.55943E-08  6.5E-07
  9.750E-04  7.23943E-11  6.11249E-15  2.18281E+02 -1.60047E-08  6.5E-07
  1.000E-03  7.61544E-11  6.11249E-15  2.18281E+02 -1.64150E-08  6.5E-07
  1.250E-03  1.18991E-10  6.11249E-15  2.18281E+02 -2.05188E-08  6.5E-07
  1.500E-03  1.71347E-10  6.11249E-15  2.18281E+02 -2.46226E-08  6.5E-07
  1.750E-03  2.33223E-10  6.11248E-15  2.18281E+02 -2.87264E-08  6.5E-07
  2.000E-03  3.04617E-10  6.11248E-15  2.18281E+02 -3.28301E-08  6.5E-07
  2.250E-03  3.85531E-10  6.11248E-15  2.18281E+02 -3.69339E-08  6.5E-07
  2.500E-03  4.75965E-10  6.11248E-15  2.18280E+02 -4.10378E-08  6.5E-07
  2.750E-03  5.75917E-10  6.11247E-15  2.18280E+02 -4.51416E-08  6.5E-07
  3.000E-03  6.85389E-10  6.11247E-15  2.18280E+02 -4.92454E-08  6.5E-07
  3.250E-03  8.04380E-10  6.11246E-15  2.18280E+02 -5.33493E-08  6.5E-07
  3.500E-03  9.32891E-10  6.11246E-15  2.18280E+02 -5.74531E-08  6.5E-07
  3.750E-03  1.07092E-09  6.11246E-15  2.18280E+02 -6.15570E-08  6.5E-07
  4.000E-03  1.21847E-09  6.11245E-15  2.18280E+02 -6.56609E-08  6.5E-07
  4.250E-03  1.37554E-09  6.11244E-15  2.18279E+02 -6.97648E-08  6.5E-07
  4.500E-03  1.54213E-09  6.11244E-15  2.18279E+02 -7.38688E-08  6.5E-07
  4.750E-03  1.71823E-09  6.11243E-15  2.18279E+02 -7.79727E-08  6.5E-07
  5.000E-03  1.90386E-09  6.11243E-15  2.18279E+02 -8.20767E-08  6.5E-07
  5.250E-03  2.09900E-09  6.11242E-15  2.18278E+02 -8.61807E-08  6.5E-07
  5.500E-03  2.30367E-09  6.11241E-15  2.18278E+02 -9.02848E-08  6.5E-07
  5.750E-03  2.51785E-09  6.11240E-15  2.18278E+02 -9.43888E-08  6.4E-07
  6.000E-03  2.74156E-09  6.11240E-15  2.18278E+02 -9.84929E-08  6.4E-07
  6.250E-03  2.97478E-09  6.11239E-15  2.18277E+02 -1.02597E-07  6.4E-07
  6.500E-03  3.21752E-09  6.11238E-15  2.18277E+02 -1.06701E-07  6.4E-07
  6.750E-03  3.46978E-09  6.11237E-15  2.18277E+02 -1.10805E-07  6.4E-07
  7.000E-03  3.73156E-09  6.11236E-15  2.18276E+02 -1.14910E-07  6.4E-07
  7.250E-03  4.00286E-09  6.11235E-15  2.18276E+02 -1.19014E-07  6.4E-07
  7.500E-03  4.28368E-09  6.11234E-15  2.18276E+02 -1.23118E-07  6.4E-07
  7.750E-03  4.57402E-09  6.11233E-15  2.18275E+02 -1.27222E-07  6.4E-07
  8.000E-03  4.87388E-09  6.11232E-15  2.18275E+02 -1.31327E-07  6.4E-07
  8.250E-03  5.18326E-09  6.11231E-15  2.18275E+02 -1.35431E-07  6.4E-07
  8.500E-03  5.50215E-09  6.11230E-15  2.18274E+02 -1.39536E-07  6.4E-07
  8.750E-03  5.83057E-09  6.11229E-15  2.18274E+02 -1.43640E-07  6.4E-07
  9.000E-03  6.16850E-09  6.11228E-15  2.18273E+02 -1.47745E-07  6.4E-07
  9.250E-03  6.51596E-09  6.11226E-15  2.18273E+02 -1.51849E-07  6.4E-07
  9.500E-03  6.87293E-09  6.11225E-15  2.18272E+02 -1.55954E-07  6.4E-07
  9.750E-03  7.23942E-09  6.11224E-15  2.18272E+02 -1.60058E-07  6.4E-07
  1.000E-02  7.61544E-09  6.11223E-15  2.18272E+02 -1.64163E-07  6.4E-07
  1.250E-02  1.18991E-08  6.11208E-15  2.18266E+02 -2.05213E-07  6.4E-07
  1.500E-02  1.71347E-08  6.11189E-15  2.18260E+02 -2.46269E-07  6.4E-07
  1.750E-02  2.33223E-08  6.11168E-15  2.18252E+02 -2.87332E-07  6.4E-07
  2.000E-02  3.04617E-08  6.11143E-15  2.18243E+02 -3.28403E-07  6.4E-07
  2.250E-02  3.85531E-08  6.11114E-15  2.18233E+02 -3.69485E-07  6.4E-07
  2.500E-02  4.75965E-08  6.11083E-15  2.18222E+02 -4.10577E-07  6.4E-07
  2.750E-02  5.75917E-08  6.11048E-15  2.18209E+02 -4.51681E-07  6.4E-07
  3.000E-02  6.85389E-08  6.11009E-15  2.18195E+02 -4.92798E-07  6.4E-07
  3.250E-02  8.04380E-08  6.10968E-15  2.18181E+02 -5.33930E-07  6.4E-07
  3.500E-02  9.32891E-08  6.10923E-15  2.18165E+02 -5.75077E-07  6.4E-07
  3.750E-02  1.07092E-07  6.10875E-15  2.18147E+02 -6.16241E-07  6.4E-07
  4.000E-02  1.21847E-07  6.10823E-15  2.18129E+02 -6.57424E-07  6.4E-07
  4.250E-02  1.37554E-07  6.10768E-15  2.18109E+02 -6.98625E-07  6.3E-07
  4.500E-02  1.54213E-07  6.10710E-15  2.18089E+02 -7.39847E-07  6.3E-07
  4.750E-02  1.71823E-07  6.10649E-15  2.18067E+02 -7.81091E-07  6.3E-07
  5.000E-02  1.90386E-07  6.10584E-15  2.18043E+02 -8.22358E-07  6.3E-07
  5.250E-02  2.09900E-07  6.10516E-15  2.18019E+02 -8.63648E-07  6.3E-07
  5.500E-02  2.30367E-07  6.10444E-15  2.17994E+02 -9.04964E-07  6.3E-07
  5.750E-02  2.51785E-07  6.10370E-15  2.17967E+02 -9.46306E-07  6.3E-07
  6.000E-02  2.74156E-07  6.10292E-15  2.17939E+02 -9.87676E-07  6.2E-07
  6.250E-02  2.97478E-07  6.10211E-15  2.17910E+02 -1.02908E-06  6.2E-07
  6.500E-02  3.21752E-07  6.10126E-15  2.17880E+02 -1.07050E-06  6.2E-07
  6.750E-02  3.46978E-07  6.10039E-15  2.17849E+02 -1.11196E-06  6.2E-07
  7.000E-02  3.73156E-07  6.09948E-15  2.17816E+02 -1.15346E-06  6.2E-07
  7.250E-02  4.00286E-07  6.09853E-15  2.17783E+02 -1.19498E-06  6.1E-07
  7.500E-02  4.28368E-07  6.09756E-15  2.17748E+02 -1.23654E-06  6.1E-07
  7.750E-02  4.57402E-07  6.09655E-15  2.17712E+02 -1.27814E-06  6.1E-07
  8.000E-02  4.87388E-07  6.09551E-15  2.17675E+02 -1.31977E-06  6.1E-07
  8.250E-02  5.18325E-07  6.09444E-15  2.17636E+02 -1.36145E-06  6.0E-07
  8.500E-02  5.50215E-07  6.09334E-15  2.17597E+02 -1.40316E-06  6.0E-07
  8.750E-02  5.83057E-07  6.09220E-15  2.17556E+02 -1.44491E-06  6.0E-07
  9.000E-02  6.16850E-07  6.09103E-15  2.17515E+02 -1.48670E-06  6.0E-07
  9.250E-02  6.51596E-07  6.08983E-15  2.17472E+02 -1.52854E-06  5.9E-07
  9.500E-02  6.87293E-07  6.08860E-15  2.17428E+02 -1.57042E-06  5.9E-07
  9.750E-02  7.23942E-07  6.08734E-15  2.17383E+02 -1.61235E-06  5.9E-07
  1.000E-01  7.61543E-07  6.08604E-15  2.17336E+02 -1.65432E-06  5.9E-07
  1.250E-01  1.18991E-06  6.07135E-15  2.16812E+02 -2.07686E-06  5.5E-07
  1.500E-01  1.71347E-06  6.05358E-15  2.16177E+02 -2.50532E-06  5.1E-07
  1.750E-01  2.33223E-06  6.03283E-15  2.15436E+02 -2.94082E-06  4.7E-07
  2.000E-01  3.04617E-06  6.00923E-15  2.14593E+02 -3.38444E-06  4.2E-07
  2.250E-01  3.85531E-06  5.98291E-15  2.13653E+02 -3.83725E-06  3.7E-07
  2.500E-01  4.75964E-06  5.95402E-15  2.12622E+02 -4.30026E-06  3.1E-07
  2.750E-01  5.75916E-06  5.92272E-15  2.11504E+02 -4.77442E-06  2.5E-07
  3.000E-01  6.85388E-06  5.88919E-15  2.10307E+02 -5.26064E-06  2.0E-07
  3.250E-01  8.04378E-06  5.85360E-15  2.09036E+02 -5.75978E-06  1.4E-07
  3.500E-01  9.32888E-06  5.81613E-15  2.07698E+02 -6.27261E-06  1.0E-07
  3.750E-01  1.07092E-05  5.77698E-15  2.06300E+02 -6.79987E-06  1.0E-07
  4.000E-01  1.21846E-05  5.73633E-15  2.04848E+02 -7.34219E-06  1.0E-07
  4.250E-01  1.37553E-05  5.69437E-15  2.03350E+02 -7.90016E-06  1.0E-07
  4.500E-01  1.54212E-05  5.65129E-15  2.01811E+02 -8.47428E-06  1.3E-07
  4.750E-01  1.71822E-05  5.60727E-15  2.00239E+02 -9.06495E-06  1.7E-07
  5.000E-01  1.90385E-05  5.56249E-15  1.98640E+02 -9.67253E-06  2.0E-07
  5.250E-01  2.09899E-05  5.51713E-15  1.97020E+02 -1.02973E-05  2.3E-07
  5.500E-01  2.30365E-05  5.47135E-15  1.95386E+02 -1.09394E-05  2.5E-07
  5.750E-01  2.51783E-05  5.42531E-15  1.93741E+02 -1.15990E-05  2.7E-07
  6.000E-01  2.74153E-05  5.37915E-15  1.92093E+02 -1.22760E-05  2.8E-07
  6.250E-01  2.97475E-05  5.33301E-15  1.90445E+02 -1.29706E-05  2.8E-07
  6.500E-01  3.21749E-05  5.28701E-15  1.88803E+02 -1.36825E-05  2.7E-07
  6.750E-01  3.46974E-05  5.24127E-15  1.87169E+02 -1.44117E-05  2.6E-07
  7.000E-01  3.73152E-05  5.19589E-15  1.85549E+02 -1.51579E-05  2.4E-07
  7.250E-01  4.00281E-05  5.15096E-15  1.83944E+02 -1.59209E-05  2.2E-07
  7.500E-01  4.28362E-05  5.10655E-15  1.82358E+02 -1.67004E-05  1.9E-07
  7.750E-01  4.57395E-05  5.06274E-15  1.80794E+02 -1.74962E-05  1.6E-07
  8.000E-01  4.87380E-05  5.01958E-15  1.79252E+02 -1.83078E-05  1.3E-07
  8.250E-01  5.18317E-05  4.97710E-15  1.77736E+02 -1.91351E-05  1.0E-07
  8.500E-01  5.50205E-05  4.93535E-15  1.76245E+02 -1.99777E-05  1.0E-07
  8.750E-01  5.83045E-05  4.89435E-15  1.74780E+02 -2.08352E-05  1.0E-07
  9.000E-01  6.16838E-05  4.85411E-15  1.73343E+02 -2.17075E-05  1.0E-07
  9.250E-01  6.51582E-05  4.81463E-15  1.71934E+02 -2.25942E-05  1.0E-07
  9.500E-01  6.87277E-05  4.77591E-15  1.70551E+02 -2.34952E-05  1.0E-07
  9.750E-01  7.23925E-05  4.73795E-15  1.69195E+02 -2.44102E-05  1.3E-07
  1.000E+00  7.61524E-05  4.70073E-15  1.67866E+02 -2.53392E-05  1.6E-07
  1.100E+00  9.21439E-05  4.55871E-15  1.62794E+02 -2.91940E-05  2.2E-07
  1.200E+00  1.09658E-04  4.42619E-15  1.58062E+02 -3.32754E-05  2.0E-07
  1.300E+00  1.28695E-04  4.30096E-15  1.53590E+02 -3.75992E-05  1.1E-07
  1.400E+00  1.49255E-04  4.18109E-15  1.49309E+02 -4.21883E-05  1.0E-07
  1.500E+00  1.71338E-04  4.06529E-15  1.45174E+02 -4.70664E-05  1.3E-07
  1.600E+00  1.94942E-04  3.95301E-15  1.41165E+02 -5.22507E-05  2.0E-07
  1.700E+00  2.20070E-04  3.84430E-15  1.37283E+02 -5.77481E-05  1.8E-07
  1.800E+00  2.46720E-04  3.73957E-15  1.33542E+02 -6.35543E-05  1.0E-07
  1.900E+00  2.74892E-04  3.63924E-15  1.29960E+02 -6.96573E-05  1.0E-07
  2.000E+00  3.04586E-04  3.54359E-15  1.26544E+02 -7.60432E-05  1.2E-07
  2.100E+00  3.35803E-04  3.45258E-15  1.23294E+02 -8.27025E-05  1.8E-07
  2.200E+00  3.68542E-04  3.36587E-15  1.20197E+02 -8.96348E-05  1.7E-07
  2.300E+00  4.02802E-04  3.28294E-15  1.17236E+02 -9.68504E-05  1.0E-07
  2.400E+00  4.38585E-04  3.20321E-15  1.14389E+02 -1.04368E-04  1.0E-07
  2.500E+00  4.75889E-04  3.12616E-15  1.11637E+02 -1.12208E-04  1.1E-07
  2.600E+00  5.14715E-04  3.05146E-15  1.08970E+02 -1.20388E-04  1.7E-07
  2.700E+00  5.55063E-04  2.97898E-15  1.06381E+02 -1.28920E-04  1.7E-07
  2.800E+00  5.96931E-04  2.90873E-15  1.03873E+02 -1.37802E-04  1.0E-07
  2.900E+00  6.40321E-04  2.84081E-15  1.01447E+02 -1.47027E-04  1.0E-07
  3.000E+00  6.85233E-04  2.77530E-15  9.91076E+01 -1.56582E-04  1.1E-07
  3.100E+00  7.31665E-04  2.71220E-15  9.68544E+01 -1.66459E-04  1.7E-07
  3.200E+00  7.79618E-04  2.65142E-15  9.46838E+01 -1.76654E-04  1.7E-07
  3.300E+00  8.29092E-04  2.59276E-15  9.25891E+01 -1.87177E-04  1.0E-07
  3.400E+00  8.80086E-04  2.53598E-15  9.05616E+01 -1.98044E-04  1.0E-07
  3.500E+00  9.32601E-04  2.48085E-15  8.85927E+01 -2.09278E-04  1.0E-07
  3.600E+00  9.86636E-04  2.42717E-15  8.66759E+01 -2.20900E-04  1.6E-07
  3.700E+00  1.04219E-03  2.37485E-15  8.48073E+01 -2.32924E-04  1.6E-07
  3.800E+00  1.09927E-03  2.32384E-15  8.29858E+01 -2.45358E-04  1.0E-07
  3.900E+00  1.15786E-03  2.27418E-15  8.12123E+01 -2.58196E-04  1.0E-07
  4.000E+00  1.21797E-03  2.22589E-15  7.94880E+01 -2.71431E-04  1.0E-07
  4.100E+00  1.27961E-03  2.17900E-15  7.78135E+01 -2.85054E-04  1.6E-07
  4.200E+00  1.34276E-03  2.13347E-15  7.61877E+01 -2.99063E-04  1.6E-07
  4.300E+00  1.40743E-03  2.08924E-15  7.46081E+01 -3.13465E-04  1.0E-07
  4.400E+00  1.47362E-03  2.04619E-15  7.30706E+01 -3.28277E-04  1.0E-07
  4.500E+00  1.54133E-03  2.00419E-15  7.15710E+01 -3.43522E-04  1.0E-07
  4.600E+00  1.61056E-03  1.96315E-15  7.01055E+01 -3.59227E-04  1.6E-07
  4.700E+00  1.68131E-03  1.92300E-15  6.86717E+01 -3.75410E-04  1.6E-07
  4.800E+00  1.75357E-03  1.88371E-15  6.72685E+01 -3.92084E-04  1.1E-07
  4.900E+00  1.82735E-03  1.84527E-15  6.58959E+01 -4.09251E-04  1.0E-07
  5.000E+00  1.90265E-03  1.80772E-15  6.45548E+01 -4.26906E-04  1.0E-07
  5.100E+00  1.97947E-03  1.77105E-15  6.32455E+01 -4.45043E-04  1.6E-07
  5.200E+00  2.05780E-03  1.73528E-15  6.19680E+01 -4.63658E-04  1.6E-07
  5.300E+00  2.13765E-03  1.70036E-15  6.07210E+01 -4.82759E-04  1.1E-07
  5.400E+00  2.21902E-03  1.66625E-15  5.95029E+01 -5.02363E-04  1.0E-07
  5.500E+00  2.30190E-03  1.63288E-15  5.83112E+01 -5.22496E-04  1.0E-07
  5.600E+00  2.38630E-03  1.60019E-15  5.71438E+01 -5.43185E-04  1.6E-07
  5.700E+00  2.47222E-03  1.56813E-15  5.59991E+01 -5.64458E-04  1.7E-07
  5.800E+00  2.55965E-03  1.53669E-15  5.48763E+01 -5.86331E-04  1.1E-07
  5.900E+00  2.64859E-03  1.50586E-15  5.37752E+01 -6.08813E-04  1.0E-07
  6.000E+00  2.73905E-03  1.47565E-15  5.26963E+01 -6.31903E-04  1.0E-07
  6.100E+00  2.83103E-03  1.44606E-15  5.16398E+01 -6.55596E-04  1.6E-07
  6.200E+00  2.92452E-03  1.41711E-15  5.06060E+01 -6.79890E-04  1.7E-07
  6.300E+00  3.01952E-03  1.38878E-15  4.95944E+01 -7.04790E-04  1.2E-07
  6.400E+00  3.11604E-03  1.36105E-15  4.86041E+01 -7.30314E-04  1.0E-07
  6.500E+00  3.21407E-03  1.33388E-15  4.76338E+01 -7.56487E-04  1.0E-07
  6.600E+00  3.31362E-03  1.30724E-15  4.66823E+01 -7.83342E-04  1.6E-07
  6.700E+00  3.41468E-03  1.28109E-15  4.57484E+01 -8.10908E-04  1.7E-07
  6.800E+00  3.51725E-03  1.25541E-15  4.48316E+01 -8.39210E-04  1.2E-07
  6.900E+00  3.62133E-03  1.23021E-15  4.39317E+01 -8.68262E-04  1.0E-07
  7.000E+00  3.72692E-03  1.20549E-15  4.30487E+01 -8.98066E-04  1.0E-07
  7.100E+00  3.83403E-03  1.18124E-15  4.21830E+01 -9.28620E-04  1.6E-07
  7.200E+00  3.94265E-03  1.15749E-15  4.13347E+01 -9.59921E-04  1.7E-07
  7.300E+00  4.05278E-03  1.13422E-15  4.05037E+01 -9.91973E-04  1.2E-07
  7.400E+00  4.16442E-03  1.11142E-15  3.96896E+01 -1.02479E-03  1.0E-07
  7.500E+00  4.27757E-03  1.08907E-15  3.88916E+01 -1.05840E-03  1.0E-07
  7.600E+00  4.39223E-03  1.06716E-15  3.81088E+01 -1.09283E-03  1.6E-07
  7.700E+00  4.50840E-03  1.04564E-15  3.73407E+01 -1.12813E-03  1.8E-07
  7.800E+00  4.62608E-03  1.02453E-15  3.65865E+01 -1.16431E-03  1.3E-07
  7.900E+00  4.74527E-03  1.00380E-15  3.58462E+01 -1.20140E-03  1.0E-07
  8.000E+00  4.86597E-03  9.83453E-16  3.51198E+01 -1.23941E-03  1.0E-07
  8.100E+00  4.98817E-03  9.63500E-16  3.44072E+01 -1.27833E-03  1.6E-07
  8.200E+00  5.11188E-03  9.43939E-16  3.37087E+01 -1.31816E-03  1.8E-07
  8.300E+00  5.23711E-03  9.24770E-16  3.30241E+01 -1.35892E-03  1.3E-07
  8.400E+00  5.36383E-03  9.05987E-16  3.23534E+01 -1.40059E-03  1.0E-07
  8.500E+00  5.49207E-03  8.87576E-16  3.16959E+01 -1.44322E-03  1.0E-07
  8.600E+00  5.62181E-03  8.69524E-16  3.10513E+01 -1.48683E-03  1.6E-07
  8.700E+00  5.75306E-03  8.51816E-16  3.04189E+01 -1.53146E-03  1.8E-07
  8.800E+00  5.88581E-03  8.34440E-16  2.97984E+01 -1.57715E-03  1.4E-07
  8.900E+00  6.02007E-03  8.17391E-16  2.91896E+01 -1.62391E-03  1.0E-07
  9.000E+00  6.15583E-03  8.00665E-16  2.85923E+01 -1.67176E-03  1.0E-07
  9.100E+00  6.29310E-03  7.84262E-16  2.80065E+01 -1.72070E-03  1.6E-07
  9.200E+00  6.43187E-03  7.68185E-16  2.74324E+01 -1.77074E-03  1.9E-07
  9.300E+00  6.57214E-03  7.52432E-16  2.68698E+01 -1.82185E-03  1.5E-07
  9.400E+00  6.71392E-03  7.36999E-16  2.63187E+01 -1.87406E-03  1.0E-07
  9.500E+00  6.85720E-03  7.21879E-16  2.57788E+01 -1.92738E-03  1.0E-07
  9.600E+00  7.00198E-03  7.07060E-16  2.52496E+01 -1.98185E-03  1.6E-07
  9.700E+00  7.14827E-03  6.92533E-16  2.47308E+01 -2.03750E-03  1.9E-07
  9.800E+00  7.29605E-03  6.78289E-16  2.42222E+01 -2.09436E-03  1.5E-07
  9.900E+00  7.44534E-03  6.64321E-16  2.37233E+01 -2.15247E-03  1.0E-07
  1.000E+01  7.59612E-03  6.50625E-16  2.32343E+01 -2.21184E-03  1.0E-07
  1.025E+01  7.97965E-03  6.17569E-16  2.20538E+01 -2.36578E-03  1.9E-07
  1.050E+01  8.37255E-03  5.86179E-16  2.09328E+01 -2.52759E-03  1.0E-07
  1.075E+01  8.77480E-03  5.56371E-16  1.98684E+01 -2.69751E-03  1.9E-07
  1.100E+01  9.18641E-03  5.28038E-16  1.88566E+01 -2.87604E-03  1.0E-07
  1.125E+01  9.60736E-03  5.01120E-16  1.78953E+01 -3.06339E-03  2.0E-07
  1.150E+01  1.00376E-02  4.75581E-16  1.69833E+01 -3.25949E-03  1.0E-07
  1.175E+01  1.04773E-02  4.51356E-16  1.61182E+01 -3.46450E-03  2.1E-07
  1.200E+01  1.09262E-02  4.28361E-16  1.52971E+01 -3.67881E-03  1.0E-07
  1.225E+01  1.13844E-02  4.06539E-16  1.45178E+01 -3.90262E-03  2.2E-07
  1.250E+01  1.18520E-02  3.85849E-16  1.37789E+01 -4.13582E-03  1.0E-07
  1.275E+01  1.23288E-02  3.66238E-16  1.30786E+01 -4.37839E-03  2.2E-07
  1.300E+01  1.28150E-02  3.47644E-16  1.24146E+01 -4.63060E-03  1.0E-07
  1.325E+01  1.33104E-02  3.30012E-16  1.17850E+01 -4.89259E-03  2.3E-07
  1.350E+01  1.38150E-02  3.13305E-16  1.11883E+01 -5.16414E-03  1.0E-07
  1.375E+01  1.43290E-02  2.97476E-16  1.06231E+01 -5.44508E-03  2.4E-07
  1.400E+01  1.48521E-02  2.82477E-16  1.00874E+01 -5.73547E-03  1.0E-07
  1.425E+01  1.53845E-02  2.68265E-16  9.57991E+00 -6.03528E-03  2.5E-07
  1.450E+01  1.59262E-02  2.54801E-16  9.09912E+00 -6.34419E-03  1.0E-07
