 #
 # Subroutine ELSEPA. Elastic scattering of electrons and positrons
 #                    by neutral atoms and positive ions
 #
 # Projectile: electron
 # Kinetic energy = 1.90000E+01 eV = 6.98237E-01 a.u.
 #
 #  ***  WARNING: Energy is too low.
 #                The reliability of the results is questionable.
 #
 # Element: Hg,  Z =  80,  atomic weight = 2.00590E+02 g/mol
 #
 # Nuclear model: Fermi distribution
 #                Average radius = 6.26355E-13 cm
 #                Skin thickness = 5.46000E-14 cm
 #
 # Number of electrons = 80
 #
 # Electron density: analytical DHFS model
 #                   A1 =  2.09753D-01 ,   ALPHA1 = 2.44080D+01
 #                   A2 =  6.00426D-01 ,   ALPHA2 = 3.96429D+00
 #                   A3 =  1.89821D-01 ,   ALPHA3 = 1.53432D+00
 #                   Volume integral = 8.00000E+01
 #
 # Furness-McCarthy exchange potential
 #
 # Correlation-polarization potential (Buckingham):
 #                           Alpha = 5.10000E-24 cm**3
 #                            Bpol = 1.00000E+00
 #
 # Total elastic cross section = 3.42223E-15 cm**2 = 1.22210E+02 a0**2
 # 1st transport cross section = 1.63643E-15 cm**2 = 5.84380E+01 a0**2
 # 2nd transport cross section = 1.15399E-15 cm**2 = 4.12098E+01 a0**2
 #
 #
 # Differential cross section:                       MU=(1-COS(THETA))/2
 #
 #  THETA        MU          DCS          DCS        Sherman      error
 #  (deg)                 (cm**2/sr)   (a0**2/sr)    function
 #----------------------------------------------------------------------
  0.000E+00  0.00000E+00  6.70410E-15  2.39408E+02  0.00000E+00  1.0E-07
  1.000E-04  7.61557E-13  6.70410E-15  2.39408E+02  1.07231E-07  1.0E-07
  1.250E-04  1.18994E-12  6.70410E-15  2.39408E+02  1.34038E-07  1.0E-07
  1.500E-04  1.71346E-12  6.70410E-15  2.39408E+02  1.60846E-07  1.0E-07
  1.750E-04  2.33225E-12  6.70410E-15  2.39408E+02  1.87654E-07  1.0E-07
  2.000E-04  3.04617E-12  6.70410E-15  2.39408E+02  2.14461E-07  1.0E-07
  2.250E-04  3.85530E-12  6.70410E-15  2.39408E+02  2.41269E-07  1.0E-07
  2.500E-04  4.75964E-12  6.70410E-15  2.39408E+02  2.68077E-07  1.0E-07
  2.750E-04  5.75917E-12  6.70410E-15  2.39408E+02  2.94884E-07  1.0E-07
  3.000E-04  6.85391E-12  6.70410E-15  2.39408E+02  3.21692E-07  1.0E-07
  3.250E-04  8.04379E-12  6.70410E-15  2.39408E+02  3.48500E-07  1.0E-07
  3.500E-04  9.32893E-12  6.70410E-15  2.39408E+02  3.75307E-07  1.0E-07
  3.750E-04  1.07092E-11  6.70410E-15  2.39408E+02  4.02115E-07  1.0E-07
  4.000E-04  1.21847E-11  6.70410E-15  2.39408E+02  4.28923E-07  1.0E-07
  4.250E-04  1.37554E-11  6.70410E-15  2.39408E+02  4.55730E-07  1.0E-07
  4.500E-04  1.54213E-11  6.70410E-15  2.39408E+02  4.82538E-07  1.0E-07
  4.750E-04  1.71823E-11  6.70410E-15  2.39408E+02  5.09346E-07  1.0E-07
  5.000E-04  1.90386E-11  6.70410E-15  2.39408E+02  5.36153E-07  1.0E-07
  5.250E-04  2.09900E-11  6.70410E-15  2.39408E+02  5.62961E-07  1.0E-07
  5.500E-04  2.30367E-11  6.70410E-15  2.39408E+02  5.89769E-07  1.0E-07
  5.750E-04  2.51785E-11  6.70410E-15  2.39408E+02  6.16576E-07  1.0E-07
  6.000E-04  2.74156E-11  6.70410E-15  2.39408E+02  6.43384E-07  1.0E-07
  6.250E-04  2.97478E-11  6.70410E-15  2.39408E+02  6.70192E-07  1.0E-07
  6.500E-04  3.21752E-11  6.70410E-15  2.39408E+02  6.97000E-07  1.0E-07
  6.750E-04  3.46979E-11  6.70410E-15  2.39408E+02  7.23807E-07  1.0E-07
  7.000E-04  3.73157E-11  6.70410E-15  2.39408E+02  7.50615E-07  1.0E-07
  7.250E-04  4.00286E-11  6.70410E-15  2.39408E+02  7.77423E-07  1.0E-07
  7.500E-04  4.28368E-11  6.70410E-15  2.39408E+02  8.04230E-07  1.0E-07
  7.750E-04  4.57402E-11  6.70410E-15  2.39408E+02  8.31038E-07  1.0E-07
  8.000E-04  4.87388E-11  6.70410E-15  2.39408E+02  8.57846E-07  1.0E-07
  8.250E-04  5.18325E-11  6.70410E-15  2.39408E+02  8.84653E-07  1.0E-07
  8.500E-04  5.50215E-11  6.70410E-15  2.39408E+02  9.11461E-07  1.0E-07
  8.750E-04  5.83057E-11  6.70410E-15  2.39408E+02  9.38269E-07  1.0E-07
  9.000E-04  6.16850E-11  6.70410E-15  2.39408E+02  9.65076E-07  1.0E-07
  9.250E-04  6.51595E-11  6.70410E-15  2.39408E+02  9.91884E-07  1.0E-07
  9.500E-04  6.87293E-11  6.70410E-15  2.39408E+02  1.01869E-06  1.0E-07
  9.750E-04  7.23943E-11  6.70410E-15  2.39408E+02  1.04550E-06  1.0E-07
  1.000E-03  7.61544E-11  6.70410E-15  2.39408E+02  1.07231E-06  1.0E-07
  1.250E-03  1.18991E-10  6.70410E-15  2.39408E+02  1.34038E-06  1.0E-07
  1.500E-03  1.71347E-10  6.70410E-15  2.39408E+02  1.60846E-06  1.0E-07
  1.750E-03  2.33223E-10  6.70410E-15  2.39408E+02  1.87654E-06  1.0E-07
  2.000E-03  3.04617E-10  6.70409E-15  2.39408E+02  2.14461E-06  1.0E-07
  2.250E-03  3.85531E-10  6.70409E-15  2.39408E+02  2.41269E-06  1.0E-07
  2.500E-03  4.75965E-10  6.70409E-15  2.39408E+02  2.68077E-06  1.0E-07
  2.750E-03  5.75917E-10  6.70409E-15  2.39408E+02  2.94884E-06  1.0E-07
  3.000E-03  6.85389E-10  6.70409E-15  2.39408E+02  3.21692E-06  1.0E-07
  3.250E-03  8.04380E-10  6.70409E-15  2.39408E+02  3.48500E-06  1.0E-07
  3.500E-03  9.32891E-10  6.70409E-15  2.39408E+02  3.75307E-06  1.0E-07
  3.750E-03  1.07092E-09  6.70409E-15  2.39408E+02  4.02115E-06  1.0E-07
  4.000E-03  1.21847E-09  6.70409E-15  2.39408E+02  4.28923E-06  1.0E-07
  4.250E-03  1.37554E-09  6.70409E-15  2.39408E+02  4.55731E-06  1.0E-07
  4.500E-03  1.54213E-09  6.70409E-15  2.39408E+02  4.82538E-06  1.0E-07
  4.750E-03  1.71823E-09  6.70409E-15  2.39408E+02  5.09346E-06  1.0E-07
  5.000E-03  1.90386E-09  6.70409E-15  2.39407E+02  5.36154E-06  1.0E-07
  5.250E-03  2.09900E-09  6.70409E-15  2.39407E+02  5.62961E-06  1.0E-07
  5.500E-03  2.30367E-09  6.70409E-15  2.39407E+02  5.89769E-06  1.0E-07
  5.750E-03  2.51785E-09  6.70409E-15  2.39407E+02  6.16577E-06  1.0E-07
  6.000E-03  2.74156E-09  6.70409E-15  2.39407E+02  6.43384E-06  1.0E-07
  6.250E-03  2.97478E-09  6.70409E-15  2.39407E+02  6.70192E-06  1.0E-07
  6.500E-03  3.21752E-09  6.70409E-15  2.39407E+02  6.97000E-06  1.0E-07
  6.750E-03  3.46978E-09  6.70409E-15  2.39407E+02  7.23808E-06  1.0E-07
  7.000E-03  3.73156E-09  6.70409E-15  2.39407E+02  7.50615E-06  1.0E-07
  7.250E-03  4.00286E-09  6.70409E-15  2.39407E+02  7.77423E-06  1.0E-07
  7.500E-03  4.28368E-09  6.70409E-15  2.39407E+02  8.04231E-06  1.0E-07
  7.750E-03  4.57402E-09  6.70409E-15  2.39407E+02  8.31038E-06  1.0E-07
  8.000E-03  4.87388E-09  6.70409E-15  2.39407E+02  8.57846E-06  1.0E-07
  8.250E-03  5.18326E-09  6.70409E-15  2.39407E+02  8.84654E-06  1.0E-07
  8.500E-03  5.50215E-09  6.70409E-15  2.39407E+02  9.11462E-06  1.0E-07
  8.750E-03  5.83057E-09  6.70409E-15  2.39407E+02  9.38269E-06  1.0E-07
  9.000E-03  6.16850E-09  6.70409E-15  2.39407E+02  9.65077E-06  1.0E-07
  9.250E-03  6.51596E-09  6.70409E-15  2.39407E+02  9.91885E-06  1.0E-07
  9.500E-03  6.87293E-09  6.70408E-15  2.39407E+02  1.01869E-05  1.0E-07
  9.750E-03  7.23942E-09  6.70408E-15  2.39407E+02  1.04550E-05  1.0E-07
  1.000E-02  7.61544E-09  6.70408E-15  2.39407E+02  1.07231E-05  1.0E-07
  1.250E-02  1.18991E-08  6.70408E-15  2.39407E+02  1.34039E-05  1.0E-07
  1.500E-02  1.71347E-08  6.70407E-15  2.39407E+02  1.60846E-05  1.0E-07
  1.750E-02  2.33223E-08  6.70406E-15  2.39406E+02  1.87654E-05  1.0E-07
  2.000E-02  3.04617E-08  6.70405E-15  2.39406E+02  2.14462E-05  1.0E-07
  2.250E-02  3.85531E-08  6.70404E-15  2.39406E+02  2.41270E-05  1.0E-07
  2.500E-02  4.75965E-08  6.70402E-15  2.39405E+02  2.68078E-05  1.0E-07
  2.750E-02  5.75917E-08  6.70401E-15  2.39404E+02  2.94887E-05  1.0E-07
  3.000E-02  6.85389E-08  6.70399E-15  2.39404E+02  3.21695E-05  1.0E-07
  3.250E-02  8.04380E-08  6.70397E-15  2.39403E+02  3.48503E-05  1.0E-07
  3.500E-02  9.32891E-08  6.70395E-15  2.39403E+02  3.75312E-05  1.0E-07
  3.750E-02  1.07092E-07  6.70393E-15  2.39402E+02  4.02121E-05  1.0E-07
  4.000E-02  1.21847E-07  6.70391E-15  2.39401E+02  4.28930E-05  1.0E-07
  4.250E-02  1.37554E-07  6.70389E-15  2.39400E+02  4.55739E-05  1.0E-07
  4.500E-02  1.54213E-07  6.70386E-15  2.39399E+02  4.82548E-05  1.0E-07
  4.750E-02  1.71823E-07  6.70383E-15  2.39398E+02  5.09357E-05  1.0E-07
  5.000E-02  1.90386E-07  6.70381E-15  2.39397E+02  5.36167E-05  1.0E-07
  5.250E-02  2.09900E-07  6.70378E-15  2.39396E+02  5.62977E-05  1.0E-07
  5.500E-02  2.30367E-07  6.70374E-15  2.39395E+02  5.89787E-05  1.0E-07
  5.750E-02  2.51785E-07  6.70371E-15  2.39394E+02  6.16597E-05  1.0E-07
  6.000E-02  2.74156E-07  6.70368E-15  2.39393E+02  6.43408E-05  1.0E-07
  6.250E-02  2.97478E-07  6.70364E-15  2.39391E+02  6.70218E-05  1.0E-07
  6.500E-02  3.21752E-07  6.70361E-15  2.39390E+02  6.97029E-05  1.0E-07
  6.750E-02  3.46978E-07  6.70357E-15  2.39389E+02  7.23841E-05  1.0E-07
  7.000E-02  3.73156E-07  6.70353E-15  2.39387E+02  7.50652E-05  1.0E-07
  7.250E-02  4.00286E-07  6.70349E-15  2.39386E+02  7.77464E-05  1.0E-07
  7.500E-02  4.28368E-07  6.70344E-15  2.39384E+02  8.04276E-05  1.0E-07
  7.750E-02  4.57402E-07  6.70340E-15  2.39383E+02  8.31088E-05  1.0E-07
  8.000E-02  4.87388E-07  6.70335E-15  2.39381E+02  8.57901E-05  1.0E-07
  8.250E-02  5.18325E-07  6.70331E-15  2.39379E+02  8.84714E-05  1.0E-07
  8.500E-02  5.50215E-07  6.70326E-15  2.39378E+02  9.11528E-05  1.0E-07
  8.750E-02  5.83057E-07  6.70321E-15  2.39376E+02  9.38341E-05  1.0E-07
  9.000E-02  6.16850E-07  6.70316E-15  2.39374E+02  9.65155E-05  1.0E-07
  9.250E-02  6.51596E-07  6.70310E-15  2.39372E+02  9.91970E-05  1.0E-07
  9.500E-02  6.87293E-07  6.70305E-15  2.39370E+02  1.01878E-04  1.0E-07
  9.750E-02  7.23942E-07  6.70299E-15  2.39368E+02  1.04560E-04  1.0E-07
  1.000E-01  7.61543E-07  6.70294E-15  2.39366E+02  1.07242E-04  1.0E-07
  1.250E-01  1.18991E-06  6.70229E-15  2.39343E+02  1.34060E-04  1.0E-07
  1.500E-01  1.71347E-06  6.70149E-15  2.39315E+02  1.60883E-04  1.0E-07
  1.750E-01  2.33223E-06  6.70055E-15  2.39281E+02  1.87712E-04  1.0E-07
  2.000E-01  3.04617E-06  6.69947E-15  2.39242E+02  2.14548E-04  1.0E-07
  2.250E-01  3.85531E-06  6.69824E-15  2.39199E+02  2.41393E-04  1.0E-07
  2.500E-01  4.75964E-06  6.69688E-15  2.39150E+02  2.68246E-04  1.0E-07
  2.750E-01  5.75916E-06  6.69537E-15  2.39096E+02  2.95110E-04  1.0E-07
  3.000E-01  6.85388E-06  6.69372E-15  2.39037E+02  3.21984E-04  1.0E-07
  3.250E-01  8.04378E-06  6.69192E-15  2.38973E+02  3.48871E-04  1.0E-07
  3.500E-01  9.32888E-06  6.68999E-15  2.38904E+02  3.75771E-04  1.0E-07
  3.750E-01  1.07092E-05  6.68792E-15  2.38830E+02  4.02684E-04  1.0E-07
  4.000E-01  1.21846E-05  6.68572E-15  2.38751E+02  4.29613E-04  1.0E-07
  4.250E-01  1.37553E-05  6.68337E-15  2.38667E+02  4.56558E-04  1.0E-07
  4.500E-01  1.54212E-05  6.68089E-15  2.38579E+02  4.83519E-04  1.0E-07
  4.750E-01  1.71822E-05  6.67827E-15  2.38485E+02  5.10498E-04  1.0E-07
  5.000E-01  1.90385E-05  6.67552E-15  2.38387E+02  5.37496E-04  1.0E-07
  5.250E-01  2.09899E-05  6.67264E-15  2.38284E+02  5.64514E-04  1.0E-07
  5.500E-01  2.30365E-05  6.66962E-15  2.38177E+02  5.91552E-04  1.0E-07
  5.750E-01  2.51783E-05  6.66648E-15  2.38064E+02  6.18611E-04  1.0E-07
  6.000E-01  2.74153E-05  6.66320E-15  2.37947E+02  6.45693E-04  1.0E-07
  6.250E-01  2.97475E-05  6.65980E-15  2.37826E+02  6.72797E-04  1.0E-07
  6.500E-01  3.21749E-05  6.65627E-15  2.37700E+02  6.99926E-04  1.0E-07
  6.750E-01  3.46974E-05  6.65261E-15  2.37569E+02  7.27080E-04  1.0E-07
  7.000E-01  3.73152E-05  6.64883E-15  2.37434E+02  7.54259E-04  1.0E-07
  7.250E-01  4.00281E-05  6.64493E-15  2.37295E+02  7.81464E-04  1.0E-07
  7.500E-01  4.28362E-05  6.64091E-15  2.37151E+02  8.08697E-04  1.0E-07
  7.750E-01  4.57395E-05  6.63677E-15  2.37003E+02  8.35958E-04  1.0E-07
  8.000E-01  4.87380E-05  6.63251E-15  2.36851E+02  8.63247E-04  1.0E-07
  8.250E-01  5.18317E-05  6.62814E-15  2.36695E+02  8.90566E-04  1.0E-07
  8.500E-01  5.50205E-05  6.62365E-15  2.36535E+02  9.17915E-04  1.0E-07
  8.750E-01  5.83045E-05  6.61905E-15  2.36370E+02  9.45295E-04  1.0E-07
  9.000E-01  6.16838E-05  6.61433E-15  2.36202E+02  9.72707E-04  1.0E-07
  9.250E-01  6.51582E-05  6.60951E-15  2.36030E+02  1.00015E-03  1.0E-07
  9.500E-01  6.87277E-05  6.60459E-15  2.35854E+02  1.02763E-03  1.0E-07
  9.750E-01  7.23925E-05  6.59955E-15  2.35674E+02  1.05514E-03  1.0E-07
  1.000E+00  7.61524E-05  6.59442E-15  2.35491E+02  1.08268E-03  1.0E-07
  1.100E+00  9.21439E-05  6.57288E-15  2.34722E+02  1.19322E-03  1.0E-07
  1.200E+00  1.09658E-04  6.54984E-15  2.33899E+02  1.30435E-03  1.0E-07
  1.300E+00  1.28695E-04  6.52543E-15  2.33027E+02  1.41610E-03  1.0E-07
  1.400E+00  1.49255E-04  6.49979E-15  2.32112E+02  1.52850E-03  1.0E-07
  1.500E+00  1.71338E-04  6.47304E-15  2.31156E+02  1.64158E-03  1.0E-07
  1.600E+00  1.94942E-04  6.44532E-15  2.30166E+02  1.75534E-03  1.0E-07
  1.700E+00  2.20070E-04  6.41675E-15  2.29146E+02  1.86981E-03  1.0E-07
  1.800E+00  2.46720E-04  6.38747E-15  2.28101E+02  1.98498E-03  1.0E-07
  1.900E+00  2.74892E-04  6.35760E-15  2.27034E+02  2.10087E-03  1.0E-07
  2.000E+00  3.04586E-04  6.32725E-15  2.25950E+02  2.21746E-03  1.0E-07
  2.100E+00  3.35803E-04  6.29653E-15  2.24853E+02  2.33477E-03  1.0E-07
  2.200E+00  3.68542E-04  6.26555E-15  2.23747E+02  2.45277E-03  1.0E-07
  2.300E+00  4.02802E-04  6.23441E-15  2.22635E+02  2.57146E-03  1.0E-07
  2.400E+00  4.38585E-04  6.20318E-15  2.21520E+02  2.69084E-03  1.0E-07
  2.500E+00  4.75889E-04  6.17195E-15  2.20404E+02  2.81087E-03  1.0E-07
  2.600E+00  5.14715E-04  6.14078E-15  2.19291E+02  2.93156E-03  1.0E-07
  2.700E+00  5.55063E-04  6.10974E-15  2.18183E+02  3.05288E-03  1.0E-07
  2.800E+00  5.96931E-04  6.07888E-15  2.17081E+02  3.17482E-03  1.0E-07
  2.900E+00  6.40321E-04  6.04823E-15  2.15986E+02  3.29736E-03  1.0E-07
  3.000E+00  6.85233E-04  6.01783E-15  2.14901E+02  3.42049E-03  1.0E-07
  3.100E+00  7.31665E-04  5.98770E-15  2.13825E+02  3.54420E-03  1.0E-07
  3.200E+00  7.79618E-04  5.95787E-15  2.12759E+02  3.66847E-03  1.0E-07
  3.300E+00  8.29092E-04  5.92834E-15  2.11705E+02  3.79328E-03  1.0E-07
  3.400E+00  8.80086E-04  5.89912E-15  2.10661E+02  3.91864E-03  1.0E-07
  3.500E+00  9.32601E-04  5.87020E-15  2.09629E+02  4.04453E-03  1.0E-07
  3.600E+00  9.86636E-04  5.84159E-15  2.08607E+02  4.17095E-03  1.0E-07
  3.700E+00  1.04219E-03  5.81326E-15  2.07595E+02  4.29790E-03  1.0E-07
  3.800E+00  1.09927E-03  5.78520E-15  2.06593E+02  4.42536E-03  1.0E-07
  3.900E+00  1.15786E-03  5.75741E-15  2.05601E+02  4.55335E-03  1.0E-07
  4.000E+00  1.21797E-03  5.72985E-15  2.04617E+02  4.68186E-03  1.0E-07
  4.100E+00  1.27961E-03  5.70251E-15  2.03640E+02  4.81090E-03  1.0E-07
  4.200E+00  1.34276E-03  5.67537E-15  2.02671E+02  4.94047E-03  1.0E-07
  4.300E+00  1.40743E-03  5.64841E-15  2.01708E+02  5.07058E-03  1.0E-07
  4.400E+00  1.47362E-03  5.62159E-15  2.00751E+02  5.20124E-03  1.0E-07
  4.500E+00  1.54133E-03  5.59492E-15  1.99798E+02  5.33245E-03  1.0E-07
  4.600E+00  1.61056E-03  5.56836E-15  1.98850E+02  5.46422E-03  1.0E-07
  4.700E+00  1.68131E-03  5.54190E-15  1.97905E+02  5.59656E-03  1.0E-07
  4.800E+00  1.75357E-03  5.51552E-15  1.96963E+02  5.72948E-03  1.0E-07
  4.900E+00  1.82735E-03  5.48921E-15  1.96023E+02  5.86299E-03  1.0E-07
  5.000E+00  1.90265E-03  5.46296E-15  1.95086E+02  5.99709E-03  1.0E-07
  5.100E+00  1.97947E-03  5.43676E-15  1.94150E+02  6.13179E-03  1.0E-07
  5.200E+00  2.05780E-03  5.41060E-15  1.93216E+02  6.26710E-03  1.0E-07
  5.300E+00  2.13765E-03  5.38448E-15  1.92283E+02  6.40302E-03  1.0E-07
  5.400E+00  2.21902E-03  5.35840E-15  1.91352E+02  6.53956E-03  1.0E-07
  5.500E+00  2.30190E-03  5.33235E-15  1.90422E+02  6.67671E-03  1.0E-07
  5.600E+00  2.38630E-03  5.30633E-15  1.89493E+02  6.81448E-03  1.0E-07
  5.700E+00  2.47222E-03  5.28036E-15  1.88565E+02  6.95288E-03  1.0E-07
  5.800E+00  2.55965E-03  5.25443E-15  1.87639E+02  7.09189E-03  1.0E-07
  5.900E+00  2.64859E-03  5.22855E-15  1.86715E+02  7.23152E-03  1.0E-07
  6.000E+00  2.73905E-03  5.20272E-15  1.85793E+02  7.37176E-03  1.0E-07
  6.100E+00  2.83103E-03  5.17696E-15  1.84873E+02  7.51261E-03  1.0E-07
  6.200E+00  2.92452E-03  5.15126E-15  1.83955E+02  7.65407E-03  1.0E-07
  6.300E+00  3.01952E-03  5.12565E-15  1.83040E+02  7.79612E-03  1.0E-07
  6.400E+00  3.11604E-03  5.10011E-15  1.82128E+02  7.93878E-03  1.0E-07
  6.500E+00  3.21407E-03  5.07467E-15  1.81220E+02  8.08202E-03  1.0E-07
  6.600E+00  3.31362E-03  5.04933E-15  1.80315E+02  8.22584E-03  1.0E-07
  6.700E+00  3.41468E-03  5.02408E-15  1.79413E+02  8.37024E-03  1.0E-07
  6.800E+00  3.51725E-03  4.99895E-15  1.78516E+02  8.51521E-03  1.0E-07
  6.900E+00  3.62133E-03  4.97393E-15  1.77622E+02  8.66075E-03  1.0E-07
  7.000E+00  3.72692E-03  4.94902E-15  1.76733E+02  8.80686E-03  1.0E-07
  7.100E+00  3.83403E-03  4.92423E-15  1.75847E+02  8.95352E-03  1.0E-07
  7.200E+00  3.94265E-03  4.89956E-15  1.74966E+02  9.10075E-03  1.0E-07
  7.300E+00  4.05278E-03  4.87500E-15  1.74089E+02  9.24852E-03  1.0E-07
  7.400E+00  4.16442E-03  4.85056E-15  1.73217E+02  9.39686E-03  1.0E-07
  7.500E+00  4.27757E-03  4.82624E-15  1.72348E+02  9.54575E-03  1.0E-07
  7.600E+00  4.39223E-03  4.80202E-15  1.71483E+02  9.69520E-03  1.0E-07
  7.700E+00  4.50840E-03  4.77792E-15  1.70623E+02  9.84520E-03  1.0E-07
  7.800E+00  4.62608E-03  4.75392E-15  1.69766E+02  9.99577E-03  1.0E-07
  7.900E+00  4.74527E-03  4.73002E-15  1.68912E+02  1.01469E-02  1.0E-07
  8.000E+00  4.86597E-03  4.70622E-15  1.68062E+02  1.02986E-02  1.0E-07
  8.100E+00  4.98817E-03  4.68251E-15  1.67215E+02  1.04509E-02  1.0E-07
  8.200E+00  5.11188E-03  4.65888E-15  1.66372E+02  1.06038E-02  1.0E-07
  8.300E+00  5.23711E-03  4.63534E-15  1.65531E+02  1.07572E-02  1.0E-07
  8.400E+00  5.36383E-03  4.61187E-15  1.64693E+02  1.09112E-02  1.0E-07
  8.500E+00  5.49207E-03  4.58847E-15  1.63857E+02  1.10659E-02  1.0E-07
  8.600E+00  5.62181E-03  4.56514E-15  1.63024E+02  1.12211E-02  1.0E-07
  8.700E+00  5.75306E-03  4.54188E-15  1.62193E+02  1.13770E-02  1.0E-07
  8.800E+00  5.88581E-03  4.51867E-15  1.61365E+02  1.15335E-02  1.0E-07
  8.900E+00  6.02007E-03  4.49553E-15  1.60538E+02  1.16905E-02  1.0E-07
  9.000E+00  6.15583E-03  4.47243E-15  1.59714E+02  1.18483E-02  1.0E-07
  9.100E+00  6.29310E-03  4.44940E-15  1.58891E+02  1.20066E-02  1.0E-07
  9.200E+00  6.43187E-03  4.42642E-15  1.58070E+02  1.21656E-02  1.0E-07
  9.300E+00  6.57214E-03  4.40349E-15  1.57251E+02  1.23252E-02  1.0E-07
  9.400E+00  6.71392E-03  4.38061E-15  1.56434E+02  1.24855E-02  1.0E-07
  9.500E+00  6.85720E-03  4.35779E-15  1.55619E+02  1.26464E-02  1.0E-07
  9.600E+00  7.00198E-03  4.33502E-15  1.54806E+02  1.28079E-02  1.0E-07
  9.700E+00  7.14827E-03  4.31231E-15  1.53995E+02  1.29701E-02  1.0E-07
  9.800E+00  7.29605E-03  4.28966E-15  1.53187E+02  1.31329E-02  1.0E-07
  9.900E+00  7.44534E-03  4.26707E-15  1.52380E+02  1.32964E-02  1.0E-07
  1.000E+01  7.59612E-03  4.24453E-15  1.51575E+02  1.34605E-02  1.0E-07
  1.025E+01  7.97965E-03  4.18849E-15  1.49574E+02  1.38735E-02  1.0E-07
  1.050E+01  8.37255E-03  4.13287E-15  1.47588E+02  1.42905E-02  1.0E-07
  1.075E+01  8.77480E-03  4.07771E-15  1.45618E+02  1.47115E-02  1.0E-07
  1.100E+01  9.18641E-03  4.02301E-15  1.43664E+02  1.51365E-02  1.0E-07
  1.125E+01  9.60736E-03  3.96878E-15  1.41728E+02  1.55655E-02  1.0E-07
  1.150E+01  1.00376E-02  3.91501E-15  1.39807E+02  1.59985E-02  1.0E-07
  1.175E+01  1.04773E-02  3.86167E-15  1.37903E+02  1.64356E-02  1.0E-07
  1.200E+01  1.09262E-02  3.80874E-15  1.36013E+02  1.68770E-02  1.0E-07
  1.225E+01  1.13844E-02  3.75619E-15  1.34136E+02  1.73226E-02  1.0E-07
  1.250E+01  1.18520E-02  3.70400E-15  1.32272E+02  1.77727E-02  1.0E-07
  1.275E+01  1.23288E-02  3.65213E-15  1.30420E+02  1.82273E-02  1.0E-07
  1.300E+01  1.28150E-02  3.60059E-15  1.28580E+02  1.86866E-02  1.0E-07
  1.325E+01  1.33104E-02  3.54937E-15  1.26750E+02  1.91505E-02  1.0E-07
  1.350E+01  1.38150E-02  3.49847E-15  1.24933E+02  1.96192E-02  1.0E-07
  1.375E+01  1.43290E-02  3.44790E-15  1.23127E+02  2.00928E-02  1.0E-07
  1.400E+01  1.48521E-02  3.39767E-15  1.21333E+02  2.05712E-02  1.0E-07
