 #
 # Subroutine ELSEPA. Elastic scattering of electrons and positrons
 #                    by neutral atoms and positive ions
 #
 # Projectile: electron
 # Kinetic energy = 3.50000E+01 eV = 1.28623E+00 a.u.
 #
 #  ***  WARNING: Energy is too low.
 #                The reliability of the results is questionable.
 #
 # Element: Si,  Z =  14,  atomic weight = 2.80855E+01 g/mol
 #
 # Nuclear model: Fermi distribution
 #                Average radius = 3.25245E-13 cm
 #                Skin thickness = 5.46000E-14 cm
 #
 # Number of electrons = 14
 #
 # Electron density: analytical DHFS model
 #                   A1 =  5.15971D-01 ,   ALPHA1 = 5.84918D+00
 #                   A2 =  4.84029D-01 ,   ALPHA2 = 1.17314D+00
 #                   A3 =  0.00000D+00 ,   ALPHA3 = 1.00000D+00
 #                   Volume integral = 1.40000E+01
 #
 # Furness-McCarthy exchange potential
 #
 # Total elastic cross section = 9.85507E-16 cm**2 = 3.51931E+01 a0**2
 # 1st transport cross section = 4.18187E-16 cm**2 = 1.49337E+01 a0**2
 # 2nd transport cross section = 4.99968E-16 cm**2 = 1.78542E+01 a0**2
 #
 #
 # Differential cross section:                       MU=(1-COS(THETA))/2
 #
 #  THETA        MU          DCS          DCS        Sherman      error
 #  (deg)                 (cm**2/sr)   (a0**2/sr)    function
 #----------------------------------------------------------------------
  0.000E+00  0.00000E+00  1.28412E-15  4.58567E+01  0.00000E+00  1.0E-07
  1.000E-04  7.61557E-13  1.28412E-15  4.58567E+01  1.89021E-09  1.0E-07
  1.250E-04  1.18994E-12  1.28412E-15  4.58567E+01  2.36276E-09  1.0E-07
  1.500E-04  1.71346E-12  1.28412E-15  4.58567E+01  2.83532E-09  1.0E-07
  1.750E-04  2.33225E-12  1.28412E-15  4.58567E+01  3.30787E-09  1.0E-07
  2.000E-04  3.04617E-12  1.28412E-15  4.58567E+01  3.78042E-09  1.0E-07
  2.250E-04  3.85530E-12  1.28412E-15  4.58567E+01  4.25297E-09  1.0E-07
  2.500E-04  4.75964E-12  1.28412E-15  4.58567E+01  4.72553E-09  1.0E-07
  2.750E-04  5.75917E-12  1.28412E-15  4.58567E+01  5.19808E-09  1.0E-07
  3.000E-04  6.85391E-12  1.28412E-15  4.58567E+01  5.67063E-09  1.0E-07
  3.250E-04  8.04379E-12  1.28412E-15  4.58567E+01  6.14318E-09  1.0E-07
  3.500E-04  9.32893E-12  1.28412E-15  4.58567E+01  6.61574E-09  1.0E-07
  3.750E-04  1.07092E-11  1.28412E-15  4.58567E+01  7.08829E-09  1.0E-07
  4.000E-04  1.21847E-11  1.28412E-15  4.58567E+01  7.56084E-09  1.0E-07
  4.250E-04  1.37554E-11  1.28412E-15  4.58567E+01  8.03339E-09  1.0E-07
  4.500E-04  1.54213E-11  1.28412E-15  4.58567E+01  8.50595E-09  1.0E-07
  4.750E-04  1.71823E-11  1.28412E-15  4.58567E+01  8.97850E-09  1.0E-07
  5.000E-04  1.90386E-11  1.28412E-15  4.58567E+01  9.45105E-09  1.0E-07
  5.250E-04  2.09900E-11  1.28412E-15  4.58567E+01  9.92360E-09  1.0E-07
  5.500E-04  2.30367E-11  1.28412E-15  4.58567E+01  1.03962E-08  1.0E-07
  5.750E-04  2.51785E-11  1.28412E-15  4.58567E+01  1.08687E-08  1.0E-07
  6.000E-04  2.74156E-11  1.28412E-15  4.58567E+01  1.13413E-08  1.0E-07
  6.250E-04  2.97478E-11  1.28412E-15  4.58567E+01  1.18138E-08  1.0E-07
  6.500E-04  3.21752E-11  1.28412E-15  4.58567E+01  1.22864E-08  1.0E-07
  6.750E-04  3.46979E-11  1.28412E-15  4.58567E+01  1.27589E-08  1.0E-07
  7.000E-04  3.73157E-11  1.28412E-15  4.58567E+01  1.32315E-08  1.0E-07
  7.250E-04  4.00286E-11  1.28412E-15  4.58567E+01  1.37040E-08  1.0E-07
  7.500E-04  4.28368E-11  1.28412E-15  4.58567E+01  1.41766E-08  1.0E-07
  7.750E-04  4.57402E-11  1.28412E-15  4.58567E+01  1.46491E-08  1.0E-07
  8.000E-04  4.87388E-11  1.28412E-15  4.58567E+01  1.51217E-08  1.0E-07
  8.250E-04  5.18325E-11  1.28412E-15  4.58567E+01  1.55942E-08  1.0E-07
  8.500E-04  5.50215E-11  1.28412E-15  4.58567E+01  1.60668E-08  1.0E-07
  8.750E-04  5.83057E-11  1.28412E-15  4.58567E+01  1.65393E-08  1.0E-07
  9.000E-04  6.16850E-11  1.28412E-15  4.58567E+01  1.70119E-08  1.0E-07
  9.250E-04  6.51595E-11  1.28412E-15  4.58567E+01  1.74844E-08  1.0E-07
  9.500E-04  6.87293E-11  1.28412E-15  4.58567E+01  1.79570E-08  1.0E-07
  9.750E-04  7.23943E-11  1.28412E-15  4.58567E+01  1.84296E-08  1.0E-07
  1.000E-03  7.61544E-11  1.28412E-15  4.58567E+01  1.89021E-08  1.0E-07
  1.250E-03  1.18991E-10  1.28412E-15  4.58567E+01  2.36276E-08  1.0E-07
  1.500E-03  1.71347E-10  1.28412E-15  4.58567E+01  2.83532E-08  1.0E-07
  1.750E-03  2.33223E-10  1.28412E-15  4.58567E+01  3.30787E-08  1.0E-07
  2.000E-03  3.04617E-10  1.28412E-15  4.58567E+01  3.78042E-08  1.0E-07
  2.250E-03  3.85531E-10  1.28412E-15  4.58567E+01  4.25297E-08  1.0E-07
  2.500E-03  4.75965E-10  1.28412E-15  4.58567E+01  4.72553E-08  1.0E-07
  2.750E-03  5.75917E-10  1.28412E-15  4.58567E+01  5.19808E-08  1.0E-07
  3.000E-03  6.85389E-10  1.28412E-15  4.58567E+01  5.67063E-08  1.0E-07
  3.250E-03  8.04380E-10  1.28412E-15  4.58567E+01  6.14318E-08  1.0E-07
  3.500E-03  9.32891E-10  1.28412E-15  4.58567E+01  6.61574E-08  1.0E-07
  3.750E-03  1.07092E-09  1.28412E-15  4.58567E+01  7.08829E-08  1.0E-07
  4.000E-03  1.21847E-09  1.28412E-15  4.58567E+01  7.56084E-08  1.0E-07
  4.250E-03  1.37554E-09  1.28412E-15  4.58567E+01  8.03339E-08  1.0E-07
  4.500E-03  1.54213E-09  1.28412E-15  4.58567E+01  8.50595E-08  1.0E-07
  4.750E-03  1.71823E-09  1.28412E-15  4.58567E+01  8.97850E-08  1.0E-07
  5.000E-03  1.90386E-09  1.28412E-15  4.58567E+01  9.45105E-08  1.0E-07
  5.250E-03  2.09900E-09  1.28412E-15  4.58567E+01  9.92361E-08  1.0E-07
  5.500E-03  2.30367E-09  1.28412E-15  4.58567E+01  1.03962E-07  1.0E-07
  5.750E-03  2.51785E-09  1.28412E-15  4.58567E+01  1.08687E-07  1.0E-07
  6.000E-03  2.74156E-09  1.28412E-15  4.58567E+01  1.13413E-07  1.0E-07
  6.250E-03  2.97478E-09  1.28412E-15  4.58567E+01  1.18138E-07  1.0E-07
  6.500E-03  3.21752E-09  1.28412E-15  4.58567E+01  1.22864E-07  1.0E-07
  6.750E-03  3.46978E-09  1.28412E-15  4.58567E+01  1.27589E-07  1.0E-07
  7.000E-03  3.73156E-09  1.28412E-15  4.58567E+01  1.32315E-07  1.0E-07
  7.250E-03  4.00286E-09  1.28412E-15  4.58567E+01  1.37040E-07  1.0E-07
  7.500E-03  4.28368E-09  1.28412E-15  4.58567E+01  1.41766E-07  1.0E-07
  7.750E-03  4.57402E-09  1.28412E-15  4.58567E+01  1.46491E-07  1.0E-07
  8.000E-03  4.87388E-09  1.28412E-15  4.58567E+01  1.51217E-07  1.0E-07
  8.250E-03  5.18326E-09  1.28412E-15  4.58567E+01  1.55942E-07  1.0E-07
  8.500E-03  5.50215E-09  1.28412E-15  4.58567E+01  1.60668E-07  1.0E-07
  8.750E-03  5.83057E-09  1.28412E-15  4.58567E+01  1.65393E-07  1.0E-07
  9.000E-03  6.16850E-09  1.28412E-15  4.58567E+01  1.70119E-07  1.0E-07
  9.250E-03  6.51596E-09  1.28412E-15  4.58567E+01  1.74844E-07  1.0E-07
  9.500E-03  6.87293E-09  1.28412E-15  4.58567E+01  1.79570E-07  1.0E-07
  9.750E-03  7.23942E-09  1.28412E-15  4.58567E+01  1.84296E-07  1.0E-07
  1.000E-02  7.61544E-09  1.28412E-15  4.58567E+01  1.89021E-07  1.0E-07
  1.250E-02  1.18991E-08  1.28412E-15  4.58567E+01  2.36276E-07  1.0E-07
  1.500E-02  1.71347E-08  1.28412E-15  4.58566E+01  2.83532E-07  1.0E-07
  1.750E-02  2.33223E-08  1.28412E-15  4.58566E+01  3.30787E-07  1.0E-07
  2.000E-02  3.04617E-08  1.28412E-15  4.58566E+01  3.78042E-07  1.0E-07
  2.250E-02  3.85531E-08  1.28412E-15  4.58566E+01  4.25297E-07  1.0E-07
  2.500E-02  4.75965E-08  1.28412E-15  4.58566E+01  4.72553E-07  1.0E-07
  2.750E-02  5.75917E-08  1.28412E-15  4.58566E+01  5.19808E-07  1.0E-07
  3.000E-02  6.85389E-08  1.28412E-15  4.58566E+01  5.67063E-07  1.0E-07
  3.250E-02  8.04380E-08  1.28411E-15  4.58566E+01  6.14319E-07  1.0E-07
  3.500E-02  9.32891E-08  1.28411E-15  4.58566E+01  6.61574E-07  1.0E-07
  3.750E-02  1.07092E-07  1.28411E-15  4.58565E+01  7.08829E-07  1.0E-07
  4.000E-02  1.21847E-07  1.28411E-15  4.58565E+01  7.56085E-07  1.0E-07
  4.250E-02  1.37554E-07  1.28411E-15  4.58565E+01  8.03340E-07  1.0E-07
  4.500E-02  1.54213E-07  1.28411E-15  4.58565E+01  8.50596E-07  1.0E-07
  4.750E-02  1.71823E-07  1.28411E-15  4.58565E+01  8.97851E-07  1.0E-07
  5.000E-02  1.90386E-07  1.28411E-15  4.58565E+01  9.45107E-07  1.0E-07
  5.250E-02  2.09900E-07  1.28411E-15  4.58564E+01  9.92362E-07  1.0E-07
  5.500E-02  2.30367E-07  1.28411E-15  4.58564E+01  1.03962E-06  1.0E-07
  5.750E-02  2.51785E-07  1.28411E-15  4.58564E+01  1.08687E-06  1.0E-07
  6.000E-02  2.74156E-07  1.28411E-15  4.58564E+01  1.13413E-06  1.0E-07
  6.250E-02  2.97478E-07  1.28411E-15  4.58563E+01  1.18138E-06  1.0E-07
  6.500E-02  3.21752E-07  1.28411E-15  4.58563E+01  1.22864E-06  1.0E-07
  6.750E-02  3.46978E-07  1.28411E-15  4.58563E+01  1.27590E-06  1.0E-07
  7.000E-02  3.73156E-07  1.28411E-15  4.58562E+01  1.32315E-06  1.0E-07
  7.250E-02  4.00286E-07  1.28410E-15  4.58562E+01  1.37041E-06  1.0E-07
  7.500E-02  4.28368E-07  1.28410E-15  4.58562E+01  1.41766E-06  1.0E-07
  7.750E-02  4.57402E-07  1.28410E-15  4.58562E+01  1.46492E-06  1.0E-07
  8.000E-02  4.87388E-07  1.28410E-15  4.58561E+01  1.51217E-06  1.0E-07
  8.250E-02  5.18325E-07  1.28410E-15  4.58561E+01  1.55943E-06  1.0E-07
  8.500E-02  5.50215E-07  1.28410E-15  4.58560E+01  1.60669E-06  1.0E-07
  8.750E-02  5.83057E-07  1.28410E-15  4.58560E+01  1.65394E-06  1.0E-07
  9.000E-02  6.16850E-07  1.28410E-15  4.58560E+01  1.70120E-06  1.0E-07
  9.250E-02  6.51596E-07  1.28410E-15  4.58559E+01  1.74845E-06  1.0E-07
  9.500E-02  6.87293E-07  1.28410E-15  4.58559E+01  1.79571E-06  1.0E-07
  9.750E-02  7.23942E-07  1.28409E-15  4.58559E+01  1.84297E-06  1.0E-07
  1.000E-01  7.61543E-07  1.28409E-15  4.58558E+01  1.89022E-06  1.0E-07
  1.250E-01  1.18991E-06  1.28408E-15  4.58553E+01  2.36278E-06  1.0E-07
  1.500E-01  1.71347E-06  1.28406E-15  4.58547E+01  2.83535E-06  1.0E-07
  1.750E-01  2.33223E-06  1.28404E-15  4.58541E+01  3.30793E-06  1.0E-07
  2.000E-01  3.04617E-06  1.28402E-15  4.58533E+01  3.78051E-06  1.0E-07
  2.250E-01  3.85531E-06  1.28400E-15  4.58524E+01  4.25309E-06  1.0E-07
  2.500E-01  4.75964E-06  1.28397E-15  4.58513E+01  4.72569E-06  1.0E-07
  2.750E-01  5.75916E-06  1.28394E-15  4.58502E+01  5.19830E-06  1.0E-07
  3.000E-01  6.85388E-06  1.28390E-15  4.58490E+01  5.67092E-06  1.0E-07
  3.250E-01  8.04378E-06  1.28387E-15  4.58477E+01  6.14355E-06  1.0E-07
  3.500E-01  9.32888E-06  1.28383E-15  4.58462E+01  6.61619E-06  1.0E-07
  3.750E-01  1.07092E-05  1.28378E-15  4.58447E+01  7.08885E-06  1.0E-07
  4.000E-01  1.21846E-05  1.28374E-15  4.58430E+01  7.56152E-06  1.0E-07
  4.250E-01  1.37553E-05  1.28369E-15  4.58413E+01  8.03421E-06  1.0E-07
  4.500E-01  1.54212E-05  1.28363E-15  4.58394E+01  8.50692E-06  1.0E-07
  4.750E-01  1.71822E-05  1.28358E-15  4.58374E+01  8.97964E-06  1.0E-07
  5.000E-01  1.90385E-05  1.28352E-15  4.58354E+01  9.45238E-06  1.0E-07
  5.250E-01  2.09899E-05  1.28346E-15  4.58332E+01  9.92515E-06  1.0E-07
  5.500E-01  2.30365E-05  1.28340E-15  4.58309E+01  1.03979E-05  1.0E-07
  5.750E-01  2.51783E-05  1.28333E-15  4.58285E+01  1.08707E-05  1.0E-07
  6.000E-01  2.74153E-05  1.28326E-15  4.58260E+01  1.13436E-05  1.0E-07
  6.250E-01  2.97475E-05  1.28319E-15  4.58234E+01  1.18164E-05  1.0E-07
  6.500E-01  3.21749E-05  1.28311E-15  4.58207E+01  1.22893E-05  1.0E-07
  6.750E-01  3.46974E-05  1.28303E-15  4.58179E+01  1.27622E-05  1.0E-07
  7.000E-01  3.73152E-05  1.28295E-15  4.58149E+01  1.32351E-05  1.0E-07
  7.250E-01  4.00281E-05  1.28286E-15  4.58119E+01  1.37081E-05  1.0E-07
  7.500E-01  4.28362E-05  1.28278E-15  4.58088E+01  1.41811E-05  1.0E-07
  7.750E-01  4.57395E-05  1.28268E-15  4.58055E+01  1.46541E-05  1.0E-07
  8.000E-01  4.87380E-05  1.28259E-15  4.58022E+01  1.51271E-05  1.0E-07
  8.250E-01  5.18317E-05  1.28249E-15  4.57987E+01  1.56002E-05  1.0E-07
  8.500E-01  5.50205E-05  1.28239E-15  4.57951E+01  1.60733E-05  1.0E-07
  8.750E-01  5.83045E-05  1.28229E-15  4.57915E+01  1.65465E-05  1.0E-07
  9.000E-01  6.16838E-05  1.28219E-15  4.57877E+01  1.70197E-05  1.0E-07
  9.250E-01  6.51582E-05  1.28208E-15  4.57838E+01  1.74929E-05  1.0E-07
  9.500E-01  6.87277E-05  1.28197E-15  4.57798E+01  1.79661E-05  1.0E-07
  9.750E-01  7.23925E-05  1.28185E-15  4.57757E+01  1.84394E-05  1.0E-07
  1.000E+00  7.61524E-05  1.28173E-15  4.57715E+01  1.89127E-05  1.0E-07
  1.100E+00  9.21439E-05  1.28123E-15  4.57537E+01  2.08065E-05  1.0E-07
  1.200E+00  1.09658E-04  1.28069E-15  4.57341E+01  2.27009E-05  1.0E-07
  1.300E+00  1.28695E-04  1.28009E-15  4.57129E+01  2.45961E-05  1.0E-07
  1.400E+00  1.49255E-04  1.27945E-15  4.56900E+01  2.64921E-05  1.0E-07
  1.500E+00  1.71338E-04  1.27876E-15  4.56654E+01  2.83891E-05  1.0E-07
  1.600E+00  1.94942E-04  1.27803E-15  4.56391E+01  3.02869E-05  1.0E-07
  1.700E+00  2.20070E-04  1.27724E-15  4.56111E+01  3.21858E-05  1.0E-07
  1.800E+00  2.46720E-04  1.27641E-15  4.55815E+01  3.40858E-05  1.0E-07
  1.900E+00  2.74892E-04  1.27554E-15  4.55502E+01  3.59870E-05  1.0E-07
  2.000E+00  3.04586E-04  1.27461E-15  4.55173E+01  3.78893E-05  1.0E-07
  2.100E+00  3.35803E-04  1.27364E-15  4.54826E+01  3.97929E-05  1.0E-07
  2.200E+00  3.68542E-04  1.27263E-15  4.54464E+01  4.16979E-05  1.0E-07
  2.300E+00  4.02802E-04  1.27157E-15  4.54084E+01  4.36042E-05  1.0E-07
  2.400E+00  4.38585E-04  1.27046E-15  4.53689E+01  4.55121E-05  1.0E-07
  2.500E+00  4.75889E-04  1.26930E-15  4.53276E+01  4.74214E-05  1.0E-07
  2.600E+00  5.14715E-04  1.26810E-15  4.52848E+01  4.93323E-05  1.0E-07
  2.700E+00  5.55063E-04  1.26686E-15  4.52403E+01  5.12449E-05  1.0E-07
  2.800E+00  5.96931E-04  1.26557E-15  4.51942E+01  5.31593E-05  1.0E-07
  2.900E+00  6.40321E-04  1.26423E-15  4.51465E+01  5.50754E-05  1.0E-07
  3.000E+00  6.85233E-04  1.26285E-15  4.50971E+01  5.69933E-05  1.0E-07
  3.100E+00  7.31665E-04  1.26142E-15  4.50462E+01  5.89131E-05  1.0E-07
  3.200E+00  7.79618E-04  1.25995E-15  4.49936E+01  6.08350E-05  1.0E-07
  3.300E+00  8.29092E-04  1.25843E-15  4.49395E+01  6.27588E-05  1.0E-07
  3.400E+00  8.80086E-04  1.25687E-15  4.48838E+01  6.46847E-05  1.0E-07
  3.500E+00  9.32601E-04  1.25527E-15  4.48265E+01  6.66128E-05  1.0E-07
  3.600E+00  9.86636E-04  1.25362E-15  4.47676E+01  6.85432E-05  1.0E-07
  3.700E+00  1.04219E-03  1.25193E-15  4.47072E+01  7.04758E-05  1.0E-07
  3.800E+00  1.09927E-03  1.25019E-15  4.46452E+01  7.24107E-05  1.0E-07
  3.900E+00  1.15786E-03  1.24841E-15  4.45816E+01  7.43481E-05  1.0E-07
  4.000E+00  1.21797E-03  1.24659E-15  4.45165E+01  7.62879E-05  1.0E-07
  4.100E+00  1.27961E-03  1.24472E-15  4.44499E+01  7.82303E-05  1.0E-07
  4.200E+00  1.34276E-03  1.24282E-15  4.43818E+01  8.01752E-05  1.0E-07
  4.300E+00  1.40743E-03  1.24087E-15  4.43121E+01  8.21228E-05  1.0E-07
  4.400E+00  1.47362E-03  1.23887E-15  4.42410E+01  8.40732E-05  1.0E-07
  4.500E+00  1.54133E-03  1.23684E-15  4.41683E+01  8.60263E-05  1.0E-07
  4.600E+00  1.61056E-03  1.23476E-15  4.40942E+01  8.79823E-05  1.0E-07
  4.700E+00  1.68131E-03  1.23264E-15  4.40185E+01  8.99411E-05  1.0E-07
  4.800E+00  1.75357E-03  1.23049E-15  4.39414E+01  9.19029E-05  1.0E-07
  4.900E+00  1.82735E-03  1.22829E-15  4.38629E+01  9.38678E-05  1.0E-07
  5.000E+00  1.90265E-03  1.22604E-15  4.37829E+01  9.58357E-05  1.0E-07
  5.100E+00  1.97947E-03  1.22376E-15  4.37014E+01  9.78068E-05  1.0E-07
  5.200E+00  2.05780E-03  1.22144E-15  4.36185E+01  9.97812E-05  1.0E-07
  5.300E+00  2.13765E-03  1.21908E-15  4.35342E+01  1.01759E-04  1.0E-07
  5.400E+00  2.21902E-03  1.21668E-15  4.34485E+01  1.03740E-04  1.0E-07
  5.500E+00  2.30190E-03  1.21424E-15  4.33614E+01  1.05724E-04  1.0E-07
  5.600E+00  2.38630E-03  1.21176E-15  4.32729E+01  1.07712E-04  1.0E-07
  5.700E+00  2.47222E-03  1.20925E-15  4.31830E+01  1.09703E-04  1.0E-07
  5.800E+00  2.55965E-03  1.20669E-15  4.30917E+01  1.11698E-04  1.0E-07
  5.900E+00  2.64859E-03  1.20410E-15  4.29991E+01  1.13696E-04  1.0E-07
  6.000E+00  2.73905E-03  1.20147E-15  4.29052E+01  1.15699E-04  1.0E-07
  6.100E+00  2.83103E-03  1.19880E-15  4.28099E+01  1.17705E-04  1.0E-07
  6.200E+00  2.92452E-03  1.19609E-15  4.27133E+01  1.19714E-04  1.0E-07
  6.300E+00  3.01952E-03  1.19335E-15  4.26154E+01  1.21728E-04  1.0E-07
  6.400E+00  3.11604E-03  1.19057E-15  4.25162E+01  1.23746E-04  1.0E-07
  6.500E+00  3.21407E-03  1.18776E-15  4.24157E+01  1.25767E-04  1.0E-07
  6.600E+00  3.31362E-03  1.18491E-15  4.23139E+01  1.27793E-04  1.0E-07
  6.700E+00  3.41468E-03  1.18202E-15  4.22108E+01  1.29823E-04  1.0E-07
  6.800E+00  3.51725E-03  1.17910E-15  4.21065E+01  1.31856E-04  1.0E-07
  6.900E+00  3.62133E-03  1.17615E-15  4.20010E+01  1.33895E-04  1.0E-07
  7.000E+00  3.72692E-03  1.17316E-15  4.18942E+01  1.35937E-04  1.0E-07
  7.100E+00  3.83403E-03  1.17013E-15  4.17863E+01  1.37984E-04  1.0E-07
  7.200E+00  3.94265E-03  1.16708E-15  4.16771E+01  1.40035E-04  1.0E-07
  7.300E+00  4.05278E-03  1.16399E-15  4.15667E+01  1.42091E-04  1.0E-07
  7.400E+00  4.16442E-03  1.16086E-15  4.14552E+01  1.44151E-04  1.0E-07
  7.500E+00  4.27757E-03  1.15771E-15  4.13425E+01  1.46216E-04  1.0E-07
  7.600E+00  4.39223E-03  1.15452E-15  4.12286E+01  1.48285E-04  1.0E-07
  7.700E+00  4.50840E-03  1.15130E-15  4.11136E+01  1.50359E-04  1.0E-07
  7.800E+00  4.62608E-03  1.14805E-15  4.09975E+01  1.52438E-04  1.0E-07
  7.900E+00  4.74527E-03  1.14476E-15  4.08803E+01  1.54522E-04  1.0E-07
  8.000E+00  4.86597E-03  1.14145E-15  4.07619E+01  1.56611E-04  1.0E-07
  8.100E+00  4.98817E-03  1.13811E-15  4.06425E+01  1.58704E-04  1.0E-07
  8.200E+00  5.11188E-03  1.13473E-15  4.05221E+01  1.60803E-04  1.0E-07
  8.300E+00  5.23711E-03  1.13133E-15  4.04005E+01  1.62906E-04  1.0E-07
  8.400E+00  5.36383E-03  1.12790E-15  4.02779E+01  1.65015E-04  1.0E-07
  8.500E+00  5.49207E-03  1.12444E-15  4.01543E+01  1.67129E-04  1.0E-07
  8.600E+00  5.62181E-03  1.12095E-15  4.00297E+01  1.69248E-04  1.0E-07
  8.700E+00  5.75306E-03  1.11743E-15  3.99041E+01  1.71372E-04  1.0E-07
  8.800E+00  5.88581E-03  1.11388E-15  3.97774E+01  1.73502E-04  1.0E-07
  8.900E+00  6.02007E-03  1.11031E-15  3.96498E+01  1.75637E-04  1.0E-07
  9.000E+00  6.15583E-03  1.10671E-15  3.95213E+01  1.77777E-04  1.0E-07
  9.100E+00  6.29310E-03  1.10308E-15  3.93918E+01  1.79923E-04  1.0E-07
  9.200E+00  6.43187E-03  1.09943E-15  3.92614E+01  1.82074E-04  1.0E-07
  9.300E+00  6.57214E-03  1.09575E-15  3.91300E+01  1.84231E-04  1.0E-07
  9.400E+00  6.71392E-03  1.09205E-15  3.89977E+01  1.86394E-04  1.0E-07
  9.500E+00  6.85720E-03  1.08832E-15  3.88646E+01  1.88562E-04  1.0E-07
  9.600E+00  7.00198E-03  1.08457E-15  3.87306E+01  1.90737E-04  1.0E-07
  9.700E+00  7.14827E-03  1.08079E-15  3.85957E+01  1.92917E-04  1.0E-07
  9.800E+00  7.29605E-03  1.07699E-15  3.84599E+01  1.95102E-04  1.0E-07
  9.900E+00  7.44534E-03  1.07316E-15  3.83234E+01  1.97294E-04  1.0E-07
  1.000E+01  7.59612E-03  1.06932E-15  3.81860E+01  1.99492E-04  1.0E-07
  1.025E+01  7.97965E-03  1.05960E-15  3.78390E+01  2.05013E-04  1.0E-07
  1.050E+01  8.37255E-03  1.04975E-15  3.74872E+01  2.10572E-04  1.0E-07
  1.075E+01  8.77480E-03  1.03977E-15  3.71309E+01  2.16171E-04  1.0E-07
  1.100E+01  9.18641E-03  1.02967E-15  3.67701E+01  2.21809E-04  1.0E-07
  1.125E+01  9.60736E-03  1.01945E-15  3.64053E+01  2.27489E-04  1.0E-07
  1.150E+01  1.00376E-02  1.00912E-15  3.60365E+01  2.33210E-04  1.0E-07
  1.175E+01  1.04773E-02  9.98694E-16  3.56640E+01  2.38973E-04  1.0E-07
  1.200E+01  1.09262E-02  9.88166E-16  3.52880E+01  2.44780E-04  1.0E-07
  1.225E+01  1.13844E-02  9.77547E-16  3.49088E+01  2.50631E-04  1.0E-07
  1.250E+01  1.18520E-02  9.66844E-16  3.45266E+01  2.56526E-04  1.0E-07
  1.275E+01  1.23288E-02  9.56061E-16  3.41416E+01  2.62466E-04  1.0E-07
  1.300E+01  1.28150E-02  9.45206E-16  3.37539E+01  2.68452E-04  1.0E-07
  1.325E+01  1.33104E-02  9.34284E-16  3.33639E+01  2.74485E-04  1.0E-07
  1.350E+01  1.38150E-02  9.23302E-16  3.29717E+01  2.80566E-04  1.0E-07
  1.375E+01  1.43290E-02  9.12264E-16  3.25775E+01  2.86694E-04  1.0E-07
  1.400E+01  1.48521E-02  9.01177E-16  3.21816E+01  2.92871E-04  1.0E-07
  1.425E+01  1.53845E-02  8.90047E-16  3.17842E+01  2.99097E-04  1.0E-07
  1.450E+01  1.59262E-02  8.78879E-16  3.13853E+01  3.05373E-04  1.0E-07
