 #
 # Subroutine ELSEPA. Elastic scattering of electrons and positrons
 #                    by neutral atoms and positive ions
 #
 # Projectile: electron
 # Kinetic energy = 1.60000E+04 eV = 5.87989E+02 a.u.
 #
 # Element: Si,  Z =  14,  atomic weight = 2.80855E+01 g/mol
 #
 # Nuclear model: Fermi distribution
 #                Average radius = 3.25245E-13 cm
 #                Skin thickness = 5.46000E-14 cm
 #
 # Number of electrons = 14
 #
 # Electron density: analytical DHFS model
 #                   A1 =  5.15971D-01 ,   ALPHA1 = 5.84918D+00
 #                   A2 =  4.84029D-01 ,   ALPHA2 = 1.17314D+00
 #                   A3 =  0.00000D+00 ,   ALPHA3 = 1.00000D+00
 #                   Volume integral = 1.40000E+01
 #
 # Furness-McCarthy exchange potential
 #
 # Total elastic cross section = 1.31633E-17 cm**2 = 4.70070E-01 a0**2
 # 1st transport cross section = 1.32816E-19 cm**2 = 4.74293E-03 a0**2
 # 2nd transport cross section = 3.19654E-19 cm**2 = 1.14150E-02 a0**2
 #
 #
 # Differential cross section:                       MU=(1-COS(THETA))/2
 #
 #  THETA        MU          DCS          DCS        Sherman      error
 #  (deg)                 (cm**2/sr)   (a0**2/sr)    function
 #----------------------------------------------------------------------
  0.000E+00  0.00000E+00  3.02659E-15  1.08082E+02  0.00000E+00  1.0E-07
  1.000E-04  7.61557E-13  3.02659E-15  1.08082E+02  1.73037E-10  1.0E-07
  1.250E-04  1.18994E-12  3.02659E-15  1.08082E+02  2.16296E-10  1.0E-07
  1.500E-04  1.71346E-12  3.02659E-15  1.08082E+02  2.59555E-10  1.0E-07
  1.750E-04  2.33225E-12  3.02659E-15  1.08082E+02  3.02814E-10  1.0E-07
  2.000E-04  3.04617E-12  3.02659E-15  1.08082E+02  3.46073E-10  1.0E-07
  2.250E-04  3.85530E-12  3.02659E-15  1.08082E+02  3.89332E-10  1.0E-07
  2.500E-04  4.75964E-12  3.02659E-15  1.08082E+02  4.32591E-10  1.0E-07
  2.750E-04  5.75917E-12  3.02659E-15  1.08082E+02  4.75851E-10  1.0E-07
  3.000E-04  6.85391E-12  3.02659E-15  1.08082E+02  5.19110E-10  1.0E-07
  3.250E-04  8.04379E-12  3.02659E-15  1.08082E+02  5.62369E-10  1.0E-07
  3.500E-04  9.32893E-12  3.02659E-15  1.08082E+02  6.05628E-10  1.0E-07
  3.750E-04  1.07092E-11  3.02659E-15  1.08082E+02  6.48887E-10  1.0E-07
  4.000E-04  1.21847E-11  3.02659E-15  1.08082E+02  6.92146E-10  1.0E-07
  4.250E-04  1.37554E-11  3.02659E-15  1.08082E+02  7.35405E-10  1.0E-07
  4.500E-04  1.54213E-11  3.02659E-15  1.08082E+02  7.78665E-10  1.0E-07
  4.750E-04  1.71823E-11  3.02659E-15  1.08082E+02  8.21924E-10  1.0E-07
  5.000E-04  1.90386E-11  3.02659E-15  1.08082E+02  8.65183E-10  1.0E-07
  5.250E-04  2.09900E-11  3.02659E-15  1.08082E+02  9.08442E-10  1.0E-07
  5.500E-04  2.30367E-11  3.02659E-15  1.08082E+02  9.51701E-10  1.0E-07
  5.750E-04  2.51785E-11  3.02659E-15  1.08082E+02  9.94960E-10  1.0E-07
  6.000E-04  2.74156E-11  3.02659E-15  1.08082E+02  1.03822E-09  1.0E-07
  6.250E-04  2.97478E-11  3.02659E-15  1.08082E+02  1.08148E-09  1.0E-07
  6.500E-04  3.21752E-11  3.02659E-15  1.08082E+02  1.12474E-09  1.0E-07
  6.750E-04  3.46979E-11  3.02659E-15  1.08082E+02  1.16800E-09  1.0E-07
  7.000E-04  3.73157E-11  3.02659E-15  1.08082E+02  1.21126E-09  1.0E-07
  7.250E-04  4.00286E-11  3.02659E-15  1.08082E+02  1.25452E-09  1.0E-07
  7.500E-04  4.28368E-11  3.02659E-15  1.08082E+02  1.29777E-09  1.0E-07
  7.750E-04  4.57402E-11  3.02659E-15  1.08082E+02  1.34103E-09  1.0E-07
  8.000E-04  4.87388E-11  3.02659E-15  1.08082E+02  1.38429E-09  1.0E-07
  8.250E-04  5.18325E-11  3.02659E-15  1.08082E+02  1.42755E-09  1.0E-07
  8.500E-04  5.50215E-11  3.02659E-15  1.08082E+02  1.47081E-09  1.0E-07
  8.750E-04  5.83057E-11  3.02659E-15  1.08082E+02  1.51407E-09  1.0E-07
  9.000E-04  6.16850E-11  3.02659E-15  1.08082E+02  1.55733E-09  1.0E-07
  9.250E-04  6.51595E-11  3.02659E-15  1.08082E+02  1.60059E-09  1.0E-07
  9.500E-04  6.87293E-11  3.02659E-15  1.08082E+02  1.64385E-09  1.0E-07
  9.750E-04  7.23943E-11  3.02659E-15  1.08082E+02  1.68711E-09  1.0E-07
  1.000E-03  7.61544E-11  3.02659E-15  1.08082E+02  1.73037E-09  1.0E-07
  1.250E-03  1.18991E-10  3.02659E-15  1.08081E+02  2.16296E-09  1.0E-07
  1.500E-03  1.71347E-10  3.02659E-15  1.08081E+02  2.59555E-09  1.0E-07
  1.750E-03  2.33223E-10  3.02659E-15  1.08081E+02  3.02814E-09  1.0E-07
  2.000E-03  3.04617E-10  3.02659E-15  1.08081E+02  3.46073E-09  1.0E-07
  2.250E-03  3.85531E-10  3.02658E-15  1.08081E+02  3.89333E-09  1.0E-07
  2.500E-03  4.75965E-10  3.02658E-15  1.08081E+02  4.32592E-09  1.0E-07
  2.750E-03  5.75917E-10  3.02658E-15  1.08081E+02  4.75851E-09  1.0E-07
  3.000E-03  6.85389E-10  3.02658E-15  1.08081E+02  5.19111E-09  1.0E-07
  3.250E-03  8.04380E-10  3.02658E-15  1.08081E+02  5.62370E-09  1.0E-07
  3.500E-03  9.32891E-10  3.02657E-15  1.08081E+02  6.05630E-09  1.0E-07
  3.750E-03  1.07092E-09  3.02657E-15  1.08081E+02  6.48889E-09  1.0E-07
  4.000E-03  1.21847E-09  3.02657E-15  1.08081E+02  6.92149E-09  1.0E-07
  4.250E-03  1.37554E-09  3.02656E-15  1.08081E+02  7.35408E-09  1.0E-07
  4.500E-03  1.54213E-09  3.02656E-15  1.08080E+02  7.78668E-09  1.0E-07
  4.750E-03  1.71823E-09  3.02656E-15  1.08080E+02  8.21928E-09  1.0E-07
  5.000E-03  1.90386E-09  3.02655E-15  1.08080E+02  8.65187E-09  1.0E-07
  5.250E-03  2.09900E-09  3.02655E-15  1.08080E+02  9.08447E-09  1.0E-07
  5.500E-03  2.30367E-09  3.02655E-15  1.08080E+02  9.51707E-09  1.0E-07
  5.750E-03  2.51785E-09  3.02654E-15  1.08080E+02  9.94967E-09  1.0E-07
  6.000E-03  2.74156E-09  3.02654E-15  1.08080E+02  1.03823E-08  1.0E-07
  6.250E-03  2.97478E-09  3.02653E-15  1.08079E+02  1.08149E-08  1.0E-07
  6.500E-03  3.21752E-09  3.02653E-15  1.08079E+02  1.12475E-08  1.0E-07
  6.750E-03  3.46978E-09  3.02652E-15  1.08079E+02  1.16801E-08  1.0E-07
  7.000E-03  3.73156E-09  3.02652E-15  1.08079E+02  1.21127E-08  1.0E-07
  7.250E-03  4.00286E-09  3.02651E-15  1.08079E+02  1.25453E-08  1.0E-07
  7.500E-03  4.28368E-09  3.02650E-15  1.08078E+02  1.29779E-08  1.0E-07
  7.750E-03  4.57402E-09  3.02650E-15  1.08078E+02  1.34105E-08  1.0E-07
  8.000E-03  4.87388E-09  3.02649E-15  1.08078E+02  1.38431E-08  1.0E-07
  8.250E-03  5.18326E-09  3.02649E-15  1.08078E+02  1.42757E-08  1.0E-07
  8.500E-03  5.50215E-09  3.02648E-15  1.08078E+02  1.47083E-08  1.0E-07
  8.750E-03  5.83057E-09  3.02647E-15  1.08077E+02  1.51410E-08  1.0E-07
  9.000E-03  6.16850E-09  3.02647E-15  1.08077E+02  1.55736E-08  1.0E-07
  9.250E-03  6.51596E-09  3.02646E-15  1.08077E+02  1.60062E-08  1.0E-07
  9.500E-03  6.87293E-09  3.02645E-15  1.08077E+02  1.64388E-08  1.0E-07
  9.750E-03  7.23942E-09  3.02644E-15  1.08076E+02  1.68714E-08  1.0E-07
  1.000E-02  7.61544E-09  3.02644E-15  1.08076E+02  1.73040E-08  1.0E-07
  1.250E-02  1.18991E-08  3.02635E-15  1.08073E+02  2.16303E-08  1.0E-07
  1.500E-02  1.71347E-08  3.02624E-15  1.08069E+02  2.59568E-08  1.0E-07
  1.750E-02  2.33223E-08  3.02612E-15  1.08065E+02  3.02834E-08  1.0E-07
  2.000E-02  3.04617E-08  3.02597E-15  1.08059E+02  3.46103E-08  1.0E-07
  2.250E-02  3.85531E-08  3.02580E-15  1.08053E+02  3.89375E-08  1.0E-07
  2.500E-02  4.75965E-08  3.02562E-15  1.08047E+02  4.32650E-08  1.0E-07
  2.750E-02  5.75917E-08  3.02542E-15  1.08040E+02  4.75929E-08  1.0E-07
  3.000E-02  6.85389E-08  3.02519E-15  1.08032E+02  5.19212E-08  1.0E-07
  3.250E-02  8.04380E-08  3.02495E-15  1.08023E+02  5.62498E-08  1.0E-07
  3.500E-02  9.32891E-08  3.02469E-15  1.08013E+02  6.05790E-08  1.0E-07
  3.750E-02  1.07092E-07  3.02440E-15  1.08003E+02  6.49086E-08  1.0E-07
  4.000E-02  1.21847E-07  3.02410E-15  1.07993E+02  6.92388E-08  1.0E-07
  4.250E-02  1.37554E-07  3.02378E-15  1.07981E+02  7.35695E-08  1.0E-07
  4.500E-02  1.54213E-07  3.02344E-15  1.07969E+02  7.79009E-08  1.0E-07
  4.750E-02  1.71823E-07  3.02308E-15  1.07956E+02  8.22328E-08  1.0E-07
  5.000E-02  1.90386E-07  3.02270E-15  1.07943E+02  8.65655E-08  1.0E-07
  5.250E-02  2.09900E-07  3.02230E-15  1.07928E+02  9.08989E-08  1.0E-07
  5.500E-02  2.30367E-07  3.02189E-15  1.07914E+02  9.52330E-08  1.0E-07
  5.750E-02  2.51785E-07  3.02145E-15  1.07898E+02  9.95678E-08  1.0E-07
  6.000E-02  2.74156E-07  3.02099E-15  1.07882E+02  1.03904E-07  1.0E-07
  6.250E-02  2.97478E-07  3.02052E-15  1.07865E+02  1.08240E-07  1.0E-07
  6.500E-02  3.21752E-07  3.02002E-15  1.07847E+02  1.12577E-07  1.0E-07
  6.750E-02  3.46978E-07  3.01951E-15  1.07829E+02  1.16916E-07  1.0E-07
  7.000E-02  3.73156E-07  3.01898E-15  1.07810E+02  1.21255E-07  1.0E-07
  7.250E-02  4.00286E-07  3.01842E-15  1.07790E+02  1.25595E-07  1.0E-07
  7.500E-02  4.28368E-07  3.01785E-15  1.07769E+02  1.29937E-07  1.0E-07
  7.750E-02  4.57402E-07  3.01726E-15  1.07748E+02  1.34279E-07  1.0E-07
  8.000E-02  4.87388E-07  3.01665E-15  1.07727E+02  1.38623E-07  1.0E-07
  8.250E-02  5.18325E-07  3.01602E-15  1.07704E+02  1.42967E-07  1.0E-07
  8.500E-02  5.50215E-07  3.01537E-15  1.07681E+02  1.47313E-07  1.0E-07
  8.750E-02  5.83057E-07  3.01470E-15  1.07657E+02  1.51660E-07  1.0E-07
  9.000E-02  6.16850E-07  3.01402E-15  1.07633E+02  1.56008E-07  1.0E-07
  9.250E-02  6.51596E-07  3.01331E-15  1.07607E+02  1.60358E-07  1.0E-07
  9.500E-02  6.87293E-07  3.01259E-15  1.07581E+02  1.64709E-07  1.0E-07
  9.750E-02  7.23942E-07  3.01184E-15  1.07555E+02  1.69061E-07  1.0E-07
  1.000E-01  7.61543E-07  3.01108E-15  1.07528E+02  1.73414E-07  1.0E-07
  1.250E-01  1.18991E-06  3.00241E-15  1.07218E+02  2.17033E-07  1.0E-07
  1.500E-01  1.71347E-06  2.99186E-15  1.06841E+02  2.60829E-07  1.0E-07
  1.750E-01  2.33223E-06  2.97947E-15  1.06399E+02  3.04836E-07  1.0E-07
  2.000E-01  3.04617E-06  2.96526E-15  1.05891E+02  3.49090E-07  1.0E-07
  2.250E-01  3.85531E-06  2.94929E-15  1.05321E+02  3.93626E-07  1.0E-07
  2.500E-01  4.75964E-06  2.93160E-15  1.04689E+02  4.38479E-07  1.0E-07
  2.750E-01  5.75916E-06  2.91223E-15  1.03998E+02  4.83682E-07  1.0E-07
  3.000E-01  6.85388E-06  2.89124E-15  1.03248E+02  5.29271E-07  1.0E-07
  3.250E-01  8.04378E-06  2.86869E-15  1.02443E+02  5.75279E-07  1.0E-07
  3.500E-01  9.32888E-06  2.84463E-15  1.01584E+02  6.21741E-07  1.0E-07
  3.750E-01  1.07092E-05  2.81913E-15  1.00673E+02  6.68689E-07  1.0E-07
  4.000E-01  1.21846E-05  2.79226E-15  9.97136E+01  7.16159E-07  1.0E-07
  4.250E-01  1.37553E-05  2.76409E-15  9.87075E+01  7.64181E-07  1.0E-07
  4.500E-01  1.54212E-05  2.73468E-15  9.76573E+01  8.12790E-07  1.0E-07
  4.750E-01  1.71822E-05  2.70411E-15  9.65656E+01  8.62017E-07  1.0E-07
  5.000E-01  1.90385E-05  2.67245E-15  9.54350E+01  9.11896E-07  1.0E-07
  5.250E-01  2.09899E-05  2.63978E-15  9.42682E+01  9.62456E-07  1.0E-07
  5.500E-01  2.30365E-05  2.60616E-15  9.30678E+01  1.01373E-06  1.0E-07
  5.750E-01  2.51783E-05  2.57168E-15  9.18364E+01  1.06575E-06  1.0E-07
  6.000E-01  2.74153E-05  2.53641E-15  9.05768E+01  1.11854E-06  1.0E-07
  6.250E-01  2.97475E-05  2.50042E-15  8.92916E+01  1.17214E-06  1.0E-07
  6.500E-01  3.21749E-05  2.46379E-15  8.79835E+01  1.22658E-06  1.0E-07
  6.750E-01  3.46974E-05  2.42658E-15  8.66549E+01  1.28188E-06  1.0E-07
  7.000E-01  3.73152E-05  2.38888E-15  8.53085E+01  1.33807E-06  1.0E-07
  7.250E-01  4.00281E-05  2.35075E-15  8.39467E+01  1.39518E-06  1.0E-07
  7.500E-01  4.28362E-05  2.31225E-15  8.25719E+01  1.45324E-06  1.0E-07
  7.750E-01  4.57395E-05  2.27346E-15  8.11866E+01  1.51227E-06  1.0E-07
  8.000E-01  4.87380E-05  2.23443E-15  7.97930E+01  1.57231E-06  1.0E-07
  8.250E-01  5.18317E-05  2.19524E-15  7.83933E+01  1.63337E-06  1.0E-07
  8.500E-01  5.50205E-05  2.15593E-15  7.69897E+01  1.69549E-06  1.0E-07
  8.750E-01  5.83045E-05  2.11657E-15  7.55841E+01  1.75868E-06  1.0E-07
  9.000E-01  6.16838E-05  2.07721E-15  7.41785E+01  1.82298E-06  1.0E-07
  9.250E-01  6.51582E-05  2.03790E-15  7.27748E+01  1.88841E-06  1.0E-07
  9.500E-01  6.87277E-05  1.99870E-15  7.13748E+01  1.95499E-06  1.0E-07
  9.750E-01  7.23925E-05  1.95964E-15  6.99801E+01  2.02274E-06  1.0E-07
  1.000E+00  7.61524E-05  1.92078E-15  6.85923E+01  2.09168E-06  1.0E-07
  1.100E+00  9.21439E-05  1.76805E-15  6.31384E+01  2.37982E-06  1.0E-07
  1.200E+00  1.09658E-04  1.62127E-15  5.78966E+01  2.68869E-06  1.0E-07
  1.300E+00  1.28695E-04  1.48203E-15  5.29243E+01  3.01941E-06  1.0E-07
  1.400E+00  1.49255E-04  1.35140E-15  4.82592E+01  3.37292E-06  1.0E-07
  1.500E+00  1.71338E-04  1.22994E-15  4.39220E+01  3.75003E-06  1.0E-07
  1.600E+00  1.94942E-04  1.11787E-15  3.99198E+01  4.15135E-06  1.0E-07
  1.700E+00  2.20070E-04  1.01509E-15  3.62496E+01  4.57733E-06  1.0E-07
  1.800E+00  2.46720E-04  9.21316E-16  3.29008E+01  5.02830E-06  1.0E-07
  1.900E+00  2.74892E-04  8.36094E-16  2.98575E+01  5.50443E-06  1.0E-07
  2.000E+00  3.04586E-04  7.58892E-16  2.71005E+01  6.00576E-06  1.0E-07
  2.100E+00  3.35803E-04  6.89127E-16  2.46092E+01  6.53219E-06  1.0E-07
  2.200E+00  3.68542E-04  6.26196E-16  2.23619E+01  7.08349E-06  1.0E-07
  2.300E+00  4.02802E-04  5.69501E-16  2.03372E+01  7.65933E-06  1.0E-07
  2.400E+00  4.38585E-04  5.18466E-16  1.85148E+01  8.25929E-06  1.0E-07
  2.500E+00  4.75889E-04  4.72545E-16  1.68749E+01  8.88285E-06  1.0E-07
  2.600E+00  5.14715E-04  4.31229E-16  1.53995E+01  9.52942E-06  1.0E-07
  2.700E+00  5.55063E-04  3.94049E-16  1.40718E+01  1.01984E-05  1.0E-07
  2.800E+00  5.96931E-04  3.60576E-16  1.28764E+01  1.08889E-05  1.0E-07
  2.900E+00  6.40321E-04  3.30422E-16  1.17996E+01  1.16004E-05  1.0E-07
  3.000E+00  6.85233E-04  3.03234E-16  1.08287E+01  1.23319E-05  1.0E-07
  3.100E+00  7.31665E-04  2.78699E-16  9.95253E+00  1.30827E-05  1.0E-07
  3.200E+00  7.79618E-04  2.56534E-16  9.16100E+00  1.38518E-05  1.0E-07
  3.300E+00  8.29092E-04  2.36487E-16  8.44511E+00  1.46385E-05  1.0E-07
  3.400E+00  8.80086E-04  2.18334E-16  7.79684E+00  1.54418E-05  1.0E-07
  3.500E+00  9.32601E-04  2.01874E-16  7.20905E+00  1.62608E-05  1.0E-07
  3.600E+00  9.86636E-04  1.86930E-16  6.67538E+00  1.70947E-05  1.0E-07
  3.700E+00  1.04219E-03  1.73343E-16  6.19019E+00  1.79426E-05  1.0E-07
  3.800E+00  1.09927E-03  1.60973E-16  5.74847E+00  1.88036E-05  1.0E-07
  3.900E+00  1.15786E-03  1.49696E-16  5.34575E+00  1.96768E-05  1.0E-07
  4.000E+00  1.21797E-03  1.39400E-16  4.97807E+00  2.05614E-05  1.0E-07
  4.100E+00  1.27961E-03  1.29987E-16  4.64191E+00  2.14565E-05  1.0E-07
  4.200E+00  1.34276E-03  1.21368E-16  4.33413E+00  2.23614E-05  1.0E-07
  4.300E+00  1.40743E-03  1.13466E-16  4.05194E+00  2.32752E-05  1.0E-07
  4.400E+00  1.47362E-03  1.06211E-16  3.79285E+00  2.41970E-05  1.0E-07
  4.500E+00  1.54133E-03  9.95403E-17  3.55465E+00  2.51263E-05  1.0E-07
  4.600E+00  1.61056E-03  9.33992E-17  3.33534E+00  2.60621E-05  1.0E-07
  4.700E+00  1.68131E-03  8.77377E-17  3.13317E+00  2.70037E-05  1.0E-07
  4.800E+00  1.75357E-03  8.25116E-17  2.94654E+00  2.79505E-05  1.0E-07
  4.900E+00  1.82735E-03  7.76810E-17  2.77404E+00  2.89017E-05  1.0E-07
  5.000E+00  1.90265E-03  7.32103E-17  2.61439E+00  2.98566E-05  1.0E-07
  5.100E+00  1.97947E-03  6.90676E-17  2.46645E+00  3.08145E-05  1.0E-07
  5.200E+00  2.05780E-03  6.52240E-17  2.32919E+00  3.17748E-05  1.0E-07
  5.300E+00  2.13765E-03  6.16537E-17  2.20169E+00  3.27368E-05  1.0E-07
  5.400E+00  2.21902E-03  5.83333E-17  2.08312E+00  3.36999E-05  1.0E-07
  5.500E+00  2.30190E-03  5.52417E-17  1.97272E+00  3.46634E-05  1.0E-07
  5.600E+00  2.38630E-03  5.23601E-17  1.86981E+00  3.56268E-05  1.0E-07
  5.700E+00  2.47222E-03  4.96711E-17  1.77379E+00  3.65893E-05  1.0E-07
  5.800E+00  2.55965E-03  4.71591E-17  1.68408E+00  3.75505E-05  1.0E-07
  5.900E+00  2.64859E-03  4.48102E-17  1.60020E+00  3.85097E-05  1.0E-07
  6.000E+00  2.73905E-03  4.26114E-17  1.52168E+00  3.94663E-05  1.0E-07
  6.100E+00  2.83103E-03  4.05511E-17  1.44810E+00  4.04197E-05  1.0E-07
  6.200E+00  2.92452E-03  3.86186E-17  1.37910E+00  4.13694E-05  1.0E-07
  6.300E+00  3.01952E-03  3.68044E-17  1.31431E+00  4.23148E-05  1.0E-07
  6.400E+00  3.11604E-03  3.50997E-17  1.25343E+00  4.32553E-05  1.0E-07
  6.500E+00  3.21407E-03  3.34963E-17  1.19617E+00  4.41903E-05  1.0E-07
  6.600E+00  3.31362E-03  3.19869E-17  1.14227E+00  4.51194E-05  1.0E-07
  6.700E+00  3.41468E-03  3.05648E-17  1.09149E+00  4.60418E-05  1.0E-07
  6.800E+00  3.51725E-03  2.92239E-17  1.04360E+00  4.69571E-05  1.0E-07
  6.900E+00  3.62133E-03  2.79584E-17  9.98412E-01  4.78647E-05  1.0E-07
  7.000E+00  3.72692E-03  2.67632E-17  9.55730E-01  4.87640E-05  1.0E-07
  7.100E+00  3.83403E-03  2.56334E-17  9.15387E-01  4.96545E-05  1.0E-07
  7.200E+00  3.94265E-03  2.45648E-17  8.77226E-01  5.05357E-05  1.0E-07
  7.300E+00  4.05278E-03  2.35533E-17  8.41103E-01  5.14069E-05  1.0E-07
  7.400E+00  4.16442E-03  2.25950E-17  8.06884E-01  5.22676E-05  1.0E-07
  7.500E+00  4.27757E-03  2.16867E-17  7.74446E-01  5.31172E-05  1.0E-07
  7.600E+00  4.39223E-03  2.08251E-17  7.43676E-01  5.39552E-05  1.0E-07
  7.700E+00  4.50840E-03  2.00072E-17  7.14469E-01  5.47810E-05  1.0E-07
  7.800E+00  4.62608E-03  1.92303E-17  6.86727E-01  5.55941E-05  1.0E-07
  7.900E+00  4.74527E-03  1.84920E-17  6.60361E-01  5.63939E-05  1.0E-07
  8.000E+00  4.86597E-03  1.77898E-17  6.35286E-01  5.71798E-05  1.0E-07
  8.100E+00  4.98817E-03  1.71217E-17  6.11426E-01  5.79513E-05  1.0E-07
  8.200E+00  5.11188E-03  1.64855E-17  5.88707E-01  5.87077E-05  1.0E-07
  8.300E+00  5.23711E-03  1.58794E-17  5.67064E-01  5.94486E-05  1.0E-07
  8.400E+00  5.36383E-03  1.53017E-17  5.46434E-01  6.01734E-05  1.0E-07
  8.500E+00  5.49207E-03  1.47507E-17  5.26758E-01  6.08814E-05  1.0E-07
  8.600E+00  5.62181E-03  1.42250E-17  5.07984E-01  6.15722E-05  1.0E-07
  8.700E+00  5.75306E-03  1.37231E-17  4.90059E-01  6.22451E-05  1.0E-07
  8.800E+00  5.88581E-03  1.32436E-17  4.72938E-01  6.28996E-05  1.0E-07
  8.900E+00  6.02007E-03  1.27854E-17  4.56576E-01  6.35351E-05  1.0E-07
  9.000E+00  6.15583E-03  1.23473E-17  4.40931E-01  6.41510E-05  1.0E-07
  9.100E+00  6.29310E-03  1.19283E-17  4.25966E-01  6.47468E-05  1.0E-07
  9.200E+00  6.43187E-03  1.15272E-17  4.11645E-01  6.53218E-05  1.0E-07
  9.300E+00  6.57214E-03  1.11433E-17  3.97933E-01  6.58756E-05  1.0E-07
  9.400E+00  6.71392E-03  1.07755E-17  3.84799E-01  6.64075E-05  1.0E-07
  9.500E+00  6.85720E-03  1.04230E-17  3.72213E-01  6.69169E-05  1.0E-07
  9.600E+00  7.00198E-03  1.00852E-17  3.60147E-01  6.74033E-05  1.0E-07
  9.700E+00  7.14827E-03  9.76112E-18  3.48576E-01  6.78661E-05  1.0E-07
  9.800E+00  7.29605E-03  9.45022E-18  3.37474E-01  6.83047E-05  1.0E-07
  9.900E+00  7.44534E-03  9.15183E-18  3.26818E-01  6.87186E-05  1.0E-07
  1.000E+01  7.59612E-03  8.86531E-18  3.16586E-01  6.91072E-05  1.0E-07
  1.025E+01  7.97965E-03  8.19731E-18  2.92731E-01  6.99640E-05  1.0E-07
  1.050E+01  8.37255E-03  7.59192E-18  2.71112E-01  7.06500E-05  1.0E-07
  1.075E+01  8.77480E-03  7.04210E-18  2.51478E-01  7.11563E-05  1.0E-07
  1.100E+01  9.18641E-03  6.54174E-18  2.33610E-01  7.14740E-05  1.0E-07
  1.125E+01  9.60736E-03  6.08551E-18  2.17317E-01  7.15943E-05  1.0E-07
  1.150E+01  1.00376E-02  5.66874E-18  2.02434E-01  7.15086E-05  1.0E-07
  1.175E+01  1.04773E-02  5.28735E-18  1.88815E-01  7.12081E-05  1.0E-07
  1.200E+01  1.09262E-02  4.93775E-18  1.76330E-01  7.06843E-05  1.0E-07
  1.225E+01  1.13844E-02  4.61678E-18  1.64868E-01  6.99288E-05  1.0E-07
  1.250E+01  1.18520E-02  4.32163E-18  1.54328E-01  6.89333E-05  1.0E-07
  1.275E+01  1.23288E-02  4.04983E-18  1.44622E-01  6.76895E-05  1.0E-07
  1.300E+01  1.28150E-02  3.79918E-18  1.35671E-01  6.61893E-05  1.0E-07
  1.325E+01  1.33104E-02  3.56772E-18  1.27405E-01  6.44248E-05  1.0E-07
  1.350E+01  1.38150E-02  3.35369E-18  1.19762E-01  6.23882E-05  1.0E-07
  1.375E+01  1.43290E-02  3.15553E-18  1.12686E-01  6.00717E-05  1.0E-07
  1.400E+01  1.48521E-02  2.97184E-18  1.06126E-01  5.74678E-05  1.0E-07
  1.425E+01  1.53845E-02  2.80138E-18  1.00039E-01  5.45692E-05  1.0E-07
  1.450E+01  1.59262E-02  2.64299E-18  9.43829E-02  5.13685E-05  1.0E-07
  1.475E+01  1.64770E-02  2.49567E-18  8.91222E-02  4.78586E-05  1.0E-07
  1.500E+01  1.70371E-02  2.35851E-18  8.42237E-02  4.40327E-05  1.0E-07
