 #
 # Subroutine ELSEPA. Elastic scattering of electrons and positrons
 #                    by neutral atoms and positive ions
 #
 # Projectile: electron
 # Kinetic energy = 2.20000E+04 eV = 8.08485E+02 a.u.
 #
 # Element: Si,  Z =  14,  atomic weight = 2.80855E+01 g/mol
 #
 # Nuclear model: Fermi distribution
 #                Average radius = 3.25245E-13 cm
 #                Skin thickness = 5.46000E-14 cm
 #
 # Number of electrons = 14
 #
 # Electron density: analytical DHFS model
 #                   A1 =  5.15971D-01 ,   ALPHA1 = 5.84918D+00
 #                   A2 =  4.84029D-01 ,   ALPHA2 = 1.17314D+00
 #                   A3 =  0.00000D+00 ,   ALPHA3 = 1.00000D+00
 #                   Volume integral = 1.40000E+01
 #
 # Furness-McCarthy exchange potential
 #
 # Total elastic cross section = 9.87695E-18 cm**2 = 3.52712E-01 a0**2
 # 1st transport cross section = 7.54824E-20 cm**2 = 2.69553E-03 a0**2
 # 2nd transport cross section = 1.84862E-19 cm**2 = 6.60156E-03 a0**2
 #
 #
 # Differential cross section:                       MU=(1-COS(THETA))/2
 #
 #  THETA        MU          DCS          DCS        Sherman      error
 #  (deg)                 (cm**2/sr)   (a0**2/sr)    function
 #----------------------------------------------------------------------
  0.000E+00  0.00000E+00  3.12465E-15  1.11583E+02  0.00000E+00  1.0E-07
  1.000E-04  7.61557E-13  3.12465E-15  1.11583E+02  1.50075E-10  1.0E-07
  1.250E-04  1.18994E-12  3.12465E-15  1.11583E+02  1.87594E-10  1.0E-07
  1.500E-04  1.71346E-12  3.12465E-15  1.11583E+02  2.25112E-10  1.0E-07
  1.750E-04  2.33225E-12  3.12465E-15  1.11583E+02  2.62631E-10  1.0E-07
  2.000E-04  3.04617E-12  3.12465E-15  1.11583E+02  3.00150E-10  1.0E-07
  2.250E-04  3.85530E-12  3.12465E-15  1.11583E+02  3.37668E-10  1.0E-07
  2.500E-04  4.75964E-12  3.12465E-15  1.11583E+02  3.75187E-10  1.0E-07
  2.750E-04  5.75917E-12  3.12465E-15  1.11583E+02  4.12706E-10  1.0E-07
  3.000E-04  6.85391E-12  3.12465E-15  1.11583E+02  4.50225E-10  1.0E-07
  3.250E-04  8.04379E-12  3.12465E-15  1.11583E+02  4.87743E-10  1.0E-07
  3.500E-04  9.32893E-12  3.12465E-15  1.11583E+02  5.25262E-10  1.0E-07
  3.750E-04  1.07092E-11  3.12465E-15  1.11583E+02  5.62781E-10  1.0E-07
  4.000E-04  1.21847E-11  3.12465E-15  1.11583E+02  6.00300E-10  1.0E-07
  4.250E-04  1.37554E-11  3.12465E-15  1.11583E+02  6.37818E-10  1.0E-07
  4.500E-04  1.54213E-11  3.12465E-15  1.11583E+02  6.75337E-10  1.0E-07
  4.750E-04  1.71823E-11  3.12465E-15  1.11583E+02  7.12856E-10  1.0E-07
  5.000E-04  1.90386E-11  3.12465E-15  1.11583E+02  7.50374E-10  1.0E-07
  5.250E-04  2.09900E-11  3.12465E-15  1.11583E+02  7.87893E-10  1.0E-07
  5.500E-04  2.30367E-11  3.12465E-15  1.11583E+02  8.25412E-10  1.0E-07
  5.750E-04  2.51785E-11  3.12465E-15  1.11583E+02  8.62931E-10  1.0E-07
  6.000E-04  2.74156E-11  3.12465E-15  1.11583E+02  9.00449E-10  1.0E-07
  6.250E-04  2.97478E-11  3.12465E-15  1.11583E+02  9.37968E-10  1.0E-07
  6.500E-04  3.21752E-11  3.12465E-15  1.11583E+02  9.75487E-10  1.0E-07
  6.750E-04  3.46979E-11  3.12465E-15  1.11583E+02  1.01301E-09  1.0E-07
  7.000E-04  3.73157E-11  3.12465E-15  1.11583E+02  1.05052E-09  1.0E-07
  7.250E-04  4.00286E-11  3.12465E-15  1.11583E+02  1.08804E-09  1.0E-07
  7.500E-04  4.28368E-11  3.12465E-15  1.11583E+02  1.12556E-09  1.0E-07
  7.750E-04  4.57402E-11  3.12465E-15  1.11583E+02  1.16308E-09  1.0E-07
  8.000E-04  4.87388E-11  3.12465E-15  1.11583E+02  1.20060E-09  1.0E-07
  8.250E-04  5.18325E-11  3.12465E-15  1.11583E+02  1.23812E-09  1.0E-07
  8.500E-04  5.50215E-11  3.12465E-15  1.11583E+02  1.27564E-09  1.0E-07
  8.750E-04  5.83057E-11  3.12465E-15  1.11583E+02  1.31316E-09  1.0E-07
  9.000E-04  6.16850E-11  3.12465E-15  1.11583E+02  1.35067E-09  1.0E-07
  9.250E-04  6.51595E-11  3.12465E-15  1.11583E+02  1.38819E-09  1.0E-07
  9.500E-04  6.87293E-11  3.12465E-15  1.11583E+02  1.42571E-09  1.0E-07
  9.750E-04  7.23943E-11  3.12465E-15  1.11583E+02  1.46323E-09  1.0E-07
  1.000E-03  7.61544E-11  3.12465E-15  1.11583E+02  1.50075E-09  1.0E-07
  1.250E-03  1.18991E-10  3.12465E-15  1.11583E+02  1.87594E-09  1.0E-07
  1.500E-03  1.71347E-10  3.12465E-15  1.11583E+02  2.25112E-09  1.0E-07
  1.750E-03  2.33223E-10  3.12465E-15  1.11583E+02  2.62631E-09  1.0E-07
  2.000E-03  3.04617E-10  3.12464E-15  1.11583E+02  3.00150E-09  1.0E-07
  2.250E-03  3.85531E-10  3.12464E-15  1.11583E+02  3.37669E-09  1.0E-07
  2.500E-03  4.75965E-10  3.12464E-15  1.11583E+02  3.75188E-09  1.0E-07
  2.750E-03  5.75917E-10  3.12464E-15  1.11583E+02  4.12707E-09  1.0E-07
  3.000E-03  6.85389E-10  3.12463E-15  1.11583E+02  4.50226E-09  1.0E-07
  3.250E-03  8.04380E-10  3.12463E-15  1.11583E+02  4.87745E-09  1.0E-07
  3.500E-03  9.32891E-10  3.12462E-15  1.11582E+02  5.25264E-09  1.0E-07
  3.750E-03  1.07092E-09  3.12462E-15  1.11582E+02  5.62783E-09  1.0E-07
  4.000E-03  1.21847E-09  3.12462E-15  1.11582E+02  6.00302E-09  1.0E-07
  4.250E-03  1.37554E-09  3.12461E-15  1.11582E+02  6.37822E-09  1.0E-07
  4.500E-03  1.54213E-09  3.12461E-15  1.11582E+02  6.75341E-09  1.0E-07
  4.750E-03  1.71823E-09  3.12460E-15  1.11582E+02  7.12861E-09  1.0E-07
  5.000E-03  1.90386E-09  3.12460E-15  1.11581E+02  7.50380E-09  1.0E-07
  5.250E-03  2.09900E-09  3.12459E-15  1.11581E+02  7.87900E-09  1.0E-07
  5.500E-03  2.30367E-09  3.12458E-15  1.11581E+02  8.25419E-09  1.0E-07
  5.750E-03  2.51785E-09  3.12458E-15  1.11581E+02  8.62939E-09  1.0E-07
  6.000E-03  2.74156E-09  3.12457E-15  1.11580E+02  9.00459E-09  1.0E-07
  6.250E-03  2.97478E-09  3.12457E-15  1.11580E+02  9.37979E-09  1.0E-07
  6.500E-03  3.21752E-09  3.12456E-15  1.11580E+02  9.75499E-09  1.0E-07
  6.750E-03  3.46978E-09  3.12455E-15  1.11580E+02  1.01302E-08  1.0E-07
  7.000E-03  3.73156E-09  3.12454E-15  1.11579E+02  1.05054E-08  1.0E-07
  7.250E-03  4.00286E-09  3.12454E-15  1.11579E+02  1.08806E-08  1.0E-07
  7.500E-03  4.28368E-09  3.12453E-15  1.11579E+02  1.12558E-08  1.0E-07
  7.750E-03  4.57402E-09  3.12452E-15  1.11579E+02  1.16310E-08  1.0E-07
  8.000E-03  4.87388E-09  3.12451E-15  1.11578E+02  1.20062E-08  1.0E-07
  8.250E-03  5.18326E-09  3.12450E-15  1.11578E+02  1.23814E-08  1.0E-07
  8.500E-03  5.50215E-09  3.12449E-15  1.11578E+02  1.27566E-08  1.0E-07
  8.750E-03  5.83057E-09  3.12448E-15  1.11577E+02  1.31319E-08  1.0E-07
  9.000E-03  6.16850E-09  3.12447E-15  1.11577E+02  1.35071E-08  1.0E-07
  9.250E-03  6.51596E-09  3.12446E-15  1.11577E+02  1.38823E-08  1.0E-07
  9.500E-03  6.87293E-09  3.12445E-15  1.11576E+02  1.42575E-08  1.0E-07
  9.750E-03  7.23942E-09  3.12444E-15  1.11576E+02  1.46327E-08  1.0E-07
  1.000E-02  7.61544E-09  3.12443E-15  1.11575E+02  1.50079E-08  1.0E-07
  1.250E-02  1.18991E-08  3.12431E-15  1.11571E+02  1.87602E-08  1.0E-07
  1.500E-02  1.71347E-08  3.12415E-15  1.11566E+02  2.25127E-08  1.0E-07
  1.750E-02  2.33223E-08  3.12397E-15  1.11559E+02  2.62655E-08  1.0E-07
  2.000E-02  3.04617E-08  3.12377E-15  1.11552E+02  3.00186E-08  1.0E-07
  2.250E-02  3.85531E-08  3.12353E-15  1.11543E+02  3.37719E-08  1.0E-07
  2.500E-02  4.75965E-08  3.12327E-15  1.11534E+02  3.75257E-08  1.0E-07
  2.750E-02  5.75917E-08  3.12298E-15  1.11524E+02  4.12799E-08  1.0E-07
  3.000E-02  6.85389E-08  3.12266E-15  1.11512E+02  4.50345E-08  1.0E-07
  3.250E-02  8.04380E-08  3.12231E-15  1.11500E+02  4.87897E-08  1.0E-07
  3.500E-02  9.32891E-08  3.12194E-15  1.11486E+02  5.25454E-08  1.0E-07
  3.750E-02  1.07092E-07  3.12154E-15  1.11472E+02  5.63017E-08  1.0E-07
  4.000E-02  1.21847E-07  3.12111E-15  1.11457E+02  6.00586E-08  1.0E-07
  4.250E-02  1.37554E-07  3.12065E-15  1.11441E+02  6.38162E-08  1.0E-07
  4.500E-02  1.54213E-07  3.12017E-15  1.11423E+02  6.75745E-08  1.0E-07
  4.750E-02  1.71823E-07  3.11966E-15  1.11405E+02  7.13335E-08  1.0E-07
  5.000E-02  1.90386E-07  3.11912E-15  1.11386E+02  7.50934E-08  1.0E-07
  5.250E-02  2.09900E-07  3.11855E-15  1.11366E+02  7.88541E-08  1.0E-07
  5.500E-02  2.30367E-07  3.11796E-15  1.11344E+02  8.26156E-08  1.0E-07
  5.750E-02  2.51785E-07  3.11734E-15  1.11322E+02  8.63781E-08  1.0E-07
  6.000E-02  2.74156E-07  3.11669E-15  1.11299E+02  9.01416E-08  1.0E-07
  6.250E-02  2.97478E-07  3.11601E-15  1.11275E+02  9.39060E-08  1.0E-07
  6.500E-02  3.21752E-07  3.11531E-15  1.11250E+02  9.76715E-08  1.0E-07
  6.750E-02  3.46978E-07  3.11458E-15  1.11224E+02  1.01438E-07  1.0E-07
  7.000E-02  3.73156E-07  3.11382E-15  1.11197E+02  1.05206E-07  1.0E-07
  7.250E-02  4.00286E-07  3.11304E-15  1.11169E+02  1.08975E-07  1.0E-07
  7.500E-02  4.28368E-07  3.11222E-15  1.11140E+02  1.12745E-07  1.0E-07
  7.750E-02  4.57402E-07  3.11138E-15  1.11110E+02  1.16516E-07  1.0E-07
  8.000E-02  4.87388E-07  3.11052E-15  1.11079E+02  1.20289E-07  1.0E-07
  8.250E-02  5.18325E-07  3.10962E-15  1.11047E+02  1.24063E-07  1.0E-07
  8.500E-02  5.50215E-07  3.10870E-15  1.11014E+02  1.27838E-07  1.0E-07
  8.750E-02  5.83057E-07  3.10775E-15  1.10980E+02  1.31615E-07  1.0E-07
  9.000E-02  6.16850E-07  3.10678E-15  1.10945E+02  1.35393E-07  1.0E-07
  9.250E-02  6.51596E-07  3.10578E-15  1.10909E+02  1.39173E-07  1.0E-07
  9.500E-02  6.87293E-07  3.10475E-15  1.10873E+02  1.42955E-07  1.0E-07
  9.750E-02  7.23942E-07  3.10369E-15  1.10835E+02  1.46738E-07  1.0E-07
  1.000E-01  7.61543E-07  3.10261E-15  1.10796E+02  1.50522E-07  1.0E-07
  1.250E-01  1.18991E-06  3.09031E-15  1.10357E+02  1.88467E-07  1.0E-07
  1.500E-01  1.71347E-06  3.07539E-15  1.09824E+02  2.26621E-07  1.0E-07
  1.750E-01  2.33223E-06  3.05789E-15  1.09199E+02  2.65025E-07  1.0E-07
  2.000E-01  3.04617E-06  3.03789E-15  1.08485E+02  3.03721E-07  1.0E-07
  2.250E-01  3.85531E-06  3.01547E-15  1.07684E+02  3.42750E-07  1.0E-07
  2.500E-01  4.75964E-06  2.99070E-15  1.06800E+02  3.82153E-07  1.0E-07
  2.750E-01  5.75916E-06  2.96369E-15  1.05835E+02  4.21970E-07  1.0E-07
  3.000E-01  6.85388E-06  2.93453E-15  1.04794E+02  4.62242E-07  1.0E-07
  3.250E-01  8.04378E-06  2.90334E-15  1.03680E+02  5.03007E-07  1.0E-07
  3.500E-01  9.32888E-06  2.87021E-15  1.02497E+02  5.44306E-07  1.0E-07
  3.750E-01  1.07092E-05  2.83528E-15  1.01250E+02  5.86177E-07  1.0E-07
  4.000E-01  1.21846E-05  2.79865E-15  9.99416E+01  6.28660E-07  1.0E-07
  4.250E-01  1.37553E-05  2.76045E-15  9.85775E+01  6.71791E-07  1.0E-07
  4.500E-01  1.54212E-05  2.72081E-15  9.71617E+01  7.15609E-07  1.0E-07
  4.750E-01  1.71822E-05  2.67984E-15  9.56987E+01  7.60149E-07  1.0E-07
  5.000E-01  1.90385E-05  2.63767E-15  9.41928E+01  8.05449E-07  1.0E-07
  5.250E-01  2.09899E-05  2.59443E-15  9.26487E+01  8.51545E-07  1.0E-07
  5.500E-01  2.30365E-05  2.55024E-15  9.10706E+01  8.98470E-07  1.0E-07
  5.750E-01  2.51783E-05  2.50522E-15  8.94629E+01  9.46259E-07  1.0E-07
  6.000E-01  2.74153E-05  2.45949E-15  8.78299E+01  9.94946E-07  1.0E-07
  6.250E-01  2.97475E-05  2.41316E-15  8.61756E+01  1.04456E-06  1.0E-07
  6.500E-01  3.21749E-05  2.36636E-15  8.45042E+01  1.09515E-06  1.0E-07
  6.750E-01  3.46974E-05  2.31918E-15  8.28195E+01  1.14672E-06  1.0E-07
  7.000E-01  3.73152E-05  2.27174E-15  8.11253E+01  1.19932E-06  1.0E-07
  7.250E-01  4.00281E-05  2.22413E-15  7.94250E+01  1.25297E-06  1.0E-07
  7.500E-01  4.28362E-05  2.17645E-15  7.77223E+01  1.30771E-06  1.0E-07
  7.750E-01  4.57395E-05  2.12878E-15  7.60202E+01  1.36356E-06  1.0E-07
  8.000E-01  4.87380E-05  2.08122E-15  7.43218E+01  1.42055E-06  1.0E-07
  8.250E-01  5.18317E-05  2.03385E-15  7.26300E+01  1.47871E-06  1.0E-07
  8.500E-01  5.50205E-05  1.98673E-15  7.09475E+01  1.53806E-06  1.0E-07
  8.750E-01  5.83045E-05  1.93995E-15  6.92768E+01  1.59862E-06  1.0E-07
  9.000E-01  6.16838E-05  1.89356E-15  6.76201E+01  1.66043E-06  1.0E-07
  9.250E-01  6.51582E-05  1.84762E-15  6.59797E+01  1.72350E-06  1.0E-07
  9.500E-01  6.87277E-05  1.80219E-15  6.43574E+01  1.78785E-06  1.0E-07
  9.750E-01  7.23925E-05  1.75732E-15  6.27551E+01  1.85352E-06  1.0E-07
  1.000E+00  7.61524E-05  1.71306E-15  6.11743E+01  1.92051E-06  1.0E-07
  1.100E+00  9.21439E-05  1.54276E-15  5.50929E+01  2.20214E-06  1.0E-07
  1.200E+00  1.09658E-04  1.38457E-15  4.94439E+01  2.50644E-06  1.0E-07
  1.300E+00  1.28695E-04  1.23946E-15  4.42619E+01  2.83429E-06  1.0E-07
  1.400E+00  1.49255E-04  1.10768E-15  3.95559E+01  3.18632E-06  1.0E-07
  1.500E+00  1.71338E-04  9.88944E-16  3.53158E+01  3.56296E-06  1.0E-07
  1.600E+00  1.94942E-04  8.82624E-16  3.15191E+01  3.96444E-06  1.0E-07
  1.700E+00  2.20070E-04  7.87867E-16  2.81353E+01  4.39080E-06  1.0E-07
  1.800E+00  2.46720E-04  7.03709E-16  2.51299E+01  4.84189E-06  1.0E-07
  1.900E+00  2.74892E-04  6.29146E-16  2.24672E+01  5.31739E-06  1.0E-07
  2.000E+00  3.04586E-04  5.63190E-16  2.01119E+01  5.81686E-06  1.0E-07
  2.100E+00  3.35803E-04  5.04899E-16  1.80303E+01  6.33970E-06  1.0E-07
  2.200E+00  3.68542E-04  4.53397E-16  1.61911E+01  6.88523E-06  1.0E-07
  2.300E+00  4.02802E-04  4.07885E-16  1.45658E+01  7.45266E-06  1.0E-07
  2.400E+00  4.38585E-04  3.67643E-16  1.31288E+01  8.04114E-06  1.0E-07
  2.500E+00  4.75889E-04  3.32028E-16  1.18569E+01  8.64975E-06  1.0E-07
  2.600E+00  5.14715E-04  3.00473E-16  1.07301E+01  9.27753E-06  1.0E-07
  2.700E+00  5.55063E-04  2.72475E-16  9.73027E+00  9.92348E-06  1.0E-07
  2.800E+00  5.96931E-04  2.47596E-16  8.84182E+00  1.05866E-05  1.0E-07
  2.900E+00  6.40321E-04  2.25452E-16  8.05103E+00  1.12658E-05  1.0E-07
  3.000E+00  6.85233E-04  2.05706E-16  7.34591E+00  1.19601E-05  1.0E-07
  3.100E+00  7.31665E-04  1.88068E-16  6.71603E+00  1.26684E-05  1.0E-07
  3.200E+00  7.79618E-04  1.72282E-16  6.15231E+00  1.33898E-05  1.0E-07
  3.300E+00  8.29092E-04  1.58127E-16  5.64682E+00  1.41232E-05  1.0E-07
  3.400E+00  8.80086E-04  1.45410E-16  5.19268E+00  1.48677E-05  1.0E-07
  3.500E+00  9.32601E-04  1.33962E-16  4.78388E+00  1.56222E-05  1.0E-07
  3.600E+00  9.86636E-04  1.23637E-16  4.41517E+00  1.63858E-05  1.0E-07
  3.700E+00  1.04219E-03  1.14307E-16  4.08199E+00  1.71576E-05  1.0E-07
  3.800E+00  1.09927E-03  1.05860E-16  3.78034E+00  1.79367E-05  1.0E-07
  3.900E+00  1.15786E-03  9.81981E-17  3.50672E+00  1.87223E-05  1.0E-07
  4.000E+00  1.21797E-03  9.12352E-17  3.25807E+00  1.95134E-05  1.0E-07
  4.100E+00  1.27961E-03  8.48960E-17  3.03169E+00  2.03093E-05  1.0E-07
  4.200E+00  1.34276E-03  7.91146E-17  2.82523E+00  2.11091E-05  1.0E-07
  4.300E+00  1.40743E-03  7.38326E-17  2.63661E+00  2.19120E-05  1.0E-07
  4.400E+00  1.47362E-03  6.89986E-17  2.46399E+00  2.27174E-05  1.0E-07
  4.500E+00  1.54133E-03  6.45674E-17  2.30574E+00  2.35245E-05  1.0E-07
  4.600E+00  1.61056E-03  6.04986E-17  2.16044E+00  2.43324E-05  1.0E-07
  4.700E+00  1.68131E-03  5.67568E-17  2.02682E+00  2.51406E-05  1.0E-07
  4.800E+00  1.75357E-03  5.33104E-17  1.90375E+00  2.59483E-05  1.0E-07
  4.900E+00  1.82735E-03  5.01313E-17  1.79022E+00  2.67548E-05  1.0E-07
  5.000E+00  1.90265E-03  4.71945E-17  1.68535E+00  2.75595E-05  1.0E-07
  5.100E+00  1.97947E-03  4.44776E-17  1.58833E+00  2.83618E-05  1.0E-07
  5.200E+00  2.05780E-03  4.19609E-17  1.49845E+00  2.91608E-05  1.0E-07
  5.300E+00  2.13765E-03  3.96263E-17  1.41508E+00  2.99560E-05  1.0E-07
  5.400E+00  2.21902E-03  3.74579E-17  1.33764E+00  3.07468E-05  1.0E-07
  5.500E+00  2.30190E-03  3.54413E-17  1.26563E+00  3.15325E-05  1.0E-07
  5.600E+00  2.38630E-03  3.35636E-17  1.19858E+00  3.23125E-05  1.0E-07
  5.700E+00  2.47222E-03  3.18131E-17  1.13607E+00  3.30862E-05  1.0E-07
  5.800E+00  2.55965E-03  3.01794E-17  1.07773E+00  3.38528E-05  1.0E-07
  5.900E+00  2.64859E-03  2.86530E-17  1.02322E+00  3.46119E-05  1.0E-07
  6.000E+00  2.73905E-03  2.72252E-17  9.72229E-01  3.53627E-05  1.0E-07
  6.100E+00  2.83103E-03  2.58883E-17  9.24487E-01  3.61047E-05  1.0E-07
  6.200E+00  2.92452E-03  2.46352E-17  8.79739E-01  3.68372E-05  1.0E-07
  6.300E+00  3.01952E-03  2.34595E-17  8.37754E-01  3.75596E-05  1.0E-07
  6.400E+00  3.11604E-03  2.23554E-17  7.98325E-01  3.82713E-05  1.0E-07
  6.500E+00  3.21407E-03  2.13175E-17  7.61261E-01  3.89717E-05  1.0E-07
  6.600E+00  3.31362E-03  2.03409E-17  7.26388E-01  3.96601E-05  1.0E-07
  6.700E+00  3.41468E-03  1.94214E-17  6.93550E-01  4.03358E-05  1.0E-07
  6.800E+00  3.51725E-03  1.85547E-17  6.62599E-01  4.09984E-05  1.0E-07
  6.900E+00  3.62133E-03  1.77371E-17  6.33405E-01  4.16470E-05  1.0E-07
  7.000E+00  3.72692E-03  1.69654E-17  6.05844E-01  4.22812E-05  1.0E-07
  7.100E+00  3.83403E-03  1.62362E-17  5.79805E-01  4.29003E-05  1.0E-07
  7.200E+00  3.94265E-03  1.55468E-17  5.55186E-01  4.35036E-05  1.0E-07
  7.300E+00  4.05278E-03  1.48945E-17  5.31892E-01  4.40905E-05  1.0E-07
  7.400E+00  4.16442E-03  1.42769E-17  5.09836E-01  4.46603E-05  1.0E-07
  7.500E+00  4.27757E-03  1.36916E-17  4.88937E-01  4.52125E-05  1.0E-07
  7.600E+00  4.39223E-03  1.31368E-17  4.69122E-01  4.57463E-05  1.0E-07
  7.700E+00  4.50840E-03  1.26103E-17  4.50322E-01  4.62612E-05  1.0E-07
  7.800E+00  4.62608E-03  1.21105E-17  4.32473E-01  4.67565E-05  1.0E-07
  7.900E+00  4.74527E-03  1.16356E-17  4.15516E-01  4.72315E-05  1.0E-07
  8.000E+00  4.86597E-03  1.11843E-17  3.99398E-01  4.76857E-05  1.0E-07
  8.100E+00  4.98817E-03  1.07550E-17  3.84068E-01  4.81183E-05  1.0E-07
  8.200E+00  5.11188E-03  1.03465E-17  3.69479E-01  4.85287E-05  1.0E-07
  8.300E+00  5.23711E-03  9.95747E-18  3.55588E-01  4.89163E-05  1.0E-07
  8.400E+00  5.36383E-03  9.58686E-18  3.42353E-01  4.92805E-05  1.0E-07
  8.500E+00  5.49207E-03  9.23359E-18  3.29737E-01  4.96205E-05  1.0E-07
  8.600E+00  5.62181E-03  8.89666E-18  3.17706E-01  4.99358E-05  1.0E-07
  8.700E+00  5.75306E-03  8.57517E-18  3.06225E-01  5.02256E-05  1.0E-07
  8.800E+00  5.88581E-03  8.26826E-18  2.95265E-01  5.04894E-05  1.0E-07
  8.900E+00  6.02007E-03  7.97512E-18  2.84797E-01  5.07266E-05  1.0E-07
  9.000E+00  6.15583E-03  7.69500E-18  2.74793E-01  5.09364E-05  1.0E-07
  9.100E+00  6.29310E-03  7.42720E-18  2.65230E-01  5.11182E-05  1.0E-07
  9.200E+00  6.43187E-03  7.17107E-18  2.56084E-01  5.12714E-05  1.0E-07
  9.300E+00  6.57214E-03  6.92599E-18  2.47332E-01  5.13954E-05  1.0E-07
  9.400E+00  6.71392E-03  6.69139E-18  2.38954E-01  5.14895E-05  1.0E-07
  9.500E+00  6.85720E-03  6.46672E-18  2.30931E-01  5.15531E-05  1.0E-07
  9.600E+00  7.00198E-03  6.25147E-18  2.23244E-01  5.15855E-05  1.0E-07
  9.700E+00  7.14827E-03  6.04518E-18  2.15877E-01  5.15862E-05  1.0E-07
  9.800E+00  7.29605E-03  5.84738E-18  2.08814E-01  5.15545E-05  1.0E-07
  9.900E+00  7.44534E-03  5.65765E-18  2.02038E-01  5.14898E-05  1.0E-07
  1.000E+01  7.59612E-03  5.47561E-18  1.95538E-01  5.13914E-05  1.0E-07
  1.025E+01  7.97965E-03  5.05168E-18  1.80399E-01  5.09943E-05  1.0E-07
  1.050E+01  8.37255E-03  4.66817E-18  1.66703E-01  5.03735E-05  1.0E-07
  1.075E+01  8.77480E-03  4.32050E-18  1.54288E-01  4.95197E-05  1.0E-07
  1.100E+01  9.18641E-03  4.00468E-18  1.43010E-01  4.84234E-05  1.0E-07
  1.125E+01  9.60736E-03  3.71725E-18  1.32746E-01  4.70756E-05  1.0E-07
  1.150E+01  1.00376E-02  3.45519E-18  1.23387E-01  4.54673E-05  1.0E-07
  1.175E+01  1.04773E-02  3.21584E-18  1.14840E-01  4.35896E-05  1.0E-07
  1.200E+01  1.09262E-02  2.99687E-18  1.07020E-01  4.14338E-05  1.0E-07
  1.225E+01  1.13844E-02  2.79622E-18  9.98548E-02  3.89914E-05  1.0E-07
  1.250E+01  1.18520E-02  2.61208E-18  9.32790E-02  3.62542E-05  1.0E-07
  1.275E+01  1.23288E-02  2.44284E-18  8.72353E-02  3.32139E-05  1.0E-07
  1.300E+01  1.28150E-02  2.28707E-18  8.16728E-02  2.98626E-05  1.0E-07
  1.325E+01  1.33104E-02  2.14351E-18  7.65461E-02  2.61926E-05  1.0E-07
  1.350E+01  1.38150E-02  2.01102E-18  7.18149E-02  2.21962E-05  1.0E-07
  1.375E+01  1.43290E-02  1.88860E-18  6.74432E-02  1.78660E-05  1.0E-07
  1.400E+01  1.48521E-02  1.77534E-18  6.33986E-02  1.31949E-05  1.0E-07
  1.425E+01  1.53845E-02  1.67043E-18  5.96522E-02  8.17580E-06  1.0E-07
  1.450E+01  1.59262E-02  1.57315E-18  5.61781E-02  0.00000E+00  1.0E-07
  1.475E+01  1.64770E-02  1.48283E-18  5.29528E-02  0.00000E+00  1.0E-07
  1.500E+01  1.70371E-02  1.39889E-18  4.99553E-02 -9.03711E-06  1.0E-07
