 #
 # Subroutine ELSEPA. Elastic scattering of electrons and positrons
 #                    by neutral atoms and positive ions
 #
 # Projectile: electron
 # Kinetic energy = 8.00000E+03 eV = 2.93995E+02 a.u.
 #
 # Element:  C,  Z =   6,  atomic weight = 1.20107E+01 g/mol
 #
 # Nuclear model: Fermi distribution
 #                Average radius = 2.45042E-13 cm
 #                Skin thickness = 5.46000E-14 cm
 #
 # Number of electrons =  6
 #
 # Electron density: analytical DHFS model
 #                   A1 =  1.53676D-01 ,   ALPHA1 = 8.04043D+00
 #                   A2 =  8.46324D-01 ,   ALPHA2 = 1.49129D+00
 #                   A3 =  0.00000D+00 ,   ALPHA3 = 1.00000D+00
 #                   Volume integral = 6.00000E+00
 #
 # Muffin-tin model: Rmt = 3.22000E-08 cm
 #
 # Furness-McCarthy exchange potential
 #
 # Total elastic cross section = 7.27945E-18 cm**2 = 2.59954E-01 a0**2
 # 1st transport cross section = 9.96922E-20 cm**2 = 3.56007E-03 a0**2
 # 2nd transport cross section = 2.43300E-19 cm**2 = 8.68840E-03 a0**2
 #
 #
 # Differential cross section:                       MU=(1-COS(THETA))/2
 #
 #  THETA        MU          DCS          DCS        Sherman      error
 #  (deg)                 (cm**2/sr)   (a0**2/sr)    function
 #----------------------------------------------------------------------
  0.000E+00  0.00000E+00  5.92688E-16  2.11653E+01  0.00000E+00  1.0E-07
  1.000E-04  7.61557E-13  5.92688E-16  2.11653E+01  4.26678E-11  1.0E-07
  1.250E-04  1.18994E-12  5.92688E-16  2.11653E+01  5.33347E-11  1.0E-07
  1.500E-04  1.71346E-12  5.92688E-16  2.11653E+01  6.40017E-11  1.0E-07
  1.750E-04  2.33225E-12  5.92688E-16  2.11653E+01  7.46686E-11  1.0E-07
  2.000E-04  3.04617E-12  5.92688E-16  2.11653E+01  8.53356E-11  1.0E-07
  2.250E-04  3.85530E-12  5.92688E-16  2.11653E+01  9.60025E-11  1.0E-07
  2.500E-04  4.75964E-12  5.92688E-16  2.11653E+01  1.06669E-10  1.0E-07
  2.750E-04  5.75917E-12  5.92688E-16  2.11653E+01  1.17336E-10  1.0E-07
  3.000E-04  6.85391E-12  5.92688E-16  2.11653E+01  1.28003E-10  1.0E-07
  3.250E-04  8.04379E-12  5.92688E-16  2.11653E+01  1.38670E-10  1.0E-07
  3.500E-04  9.32893E-12  5.92688E-16  2.11653E+01  1.49337E-10  1.0E-07
  3.750E-04  1.07092E-11  5.92688E-16  2.11653E+01  1.60004E-10  1.0E-07
  4.000E-04  1.21847E-11  5.92688E-16  2.11653E+01  1.70671E-10  1.0E-07
  4.250E-04  1.37554E-11  5.92688E-16  2.11653E+01  1.81338E-10  1.0E-07
  4.500E-04  1.54213E-11  5.92688E-16  2.11653E+01  1.92005E-10  1.0E-07
  4.750E-04  1.71823E-11  5.92688E-16  2.11653E+01  2.02672E-10  1.0E-07
  5.000E-04  1.90386E-11  5.92688E-16  2.11653E+01  2.13339E-10  1.0E-07
  5.250E-04  2.09900E-11  5.92688E-16  2.11653E+01  2.24006E-10  1.0E-07
  5.500E-04  2.30367E-11  5.92688E-16  2.11653E+01  2.34673E-10  1.0E-07
  5.750E-04  2.51785E-11  5.92688E-16  2.11653E+01  2.45340E-10  1.0E-07
  6.000E-04  2.74156E-11  5.92688E-16  2.11653E+01  2.56007E-10  1.0E-07
  6.250E-04  2.97478E-11  5.92688E-16  2.11653E+01  2.66674E-10  1.0E-07
  6.500E-04  3.21752E-11  5.92688E-16  2.11653E+01  2.77341E-10  1.0E-07
  6.750E-04  3.46979E-11  5.92688E-16  2.11653E+01  2.88007E-10  1.0E-07
  7.000E-04  3.73157E-11  5.92688E-16  2.11653E+01  2.98674E-10  1.0E-07
  7.250E-04  4.00286E-11  5.92688E-16  2.11653E+01  3.09341E-10  1.0E-07
  7.500E-04  4.28368E-11  5.92688E-16  2.11653E+01  3.20008E-10  1.0E-07
  7.750E-04  4.57402E-11  5.92688E-16  2.11653E+01  3.30675E-10  1.0E-07
  8.000E-04  4.87388E-11  5.92688E-16  2.11653E+01  3.41342E-10  1.0E-07
  8.250E-04  5.18325E-11  5.92688E-16  2.11653E+01  3.52009E-10  1.0E-07
  8.500E-04  5.50215E-11  5.92688E-16  2.11653E+01  3.62676E-10  1.0E-07
  8.750E-04  5.83057E-11  5.92688E-16  2.11653E+01  3.73343E-10  1.0E-07
  9.000E-04  6.16850E-11  5.92688E-16  2.11653E+01  3.84010E-10  1.0E-07
  9.250E-04  6.51595E-11  5.92688E-16  2.11653E+01  3.94677E-10  1.0E-07
  9.500E-04  6.87293E-11  5.92688E-16  2.11653E+01  4.05344E-10  1.0E-07
  9.750E-04  7.23943E-11  5.92688E-16  2.11653E+01  4.16011E-10  1.0E-07
  1.000E-03  7.61544E-11  5.92688E-16  2.11653E+01  4.26678E-10  1.0E-07
  1.250E-03  1.18991E-10  5.92688E-16  2.11653E+01  5.33347E-10  1.0E-07
  1.500E-03  1.71347E-10  5.92688E-16  2.11653E+01  6.40017E-10  1.0E-07
  1.750E-03  2.33223E-10  5.92688E-16  2.11653E+01  7.46686E-10  1.0E-07
  2.000E-03  3.04617E-10  5.92688E-16  2.11653E+01  8.53356E-10  1.0E-07
  2.250E-03  3.85531E-10  5.92688E-16  2.11653E+01  9.60025E-10  1.0E-07
  2.500E-03  4.75965E-10  5.92688E-16  2.11653E+01  1.06669E-09  1.0E-07
  2.750E-03  5.75917E-10  5.92688E-16  2.11653E+01  1.17336E-09  1.0E-07
  3.000E-03  6.85389E-10  5.92688E-16  2.11653E+01  1.28003E-09  1.0E-07
  3.250E-03  8.04380E-10  5.92687E-16  2.11653E+01  1.38670E-09  1.0E-07
  3.500E-03  9.32891E-10  5.92687E-16  2.11652E+01  1.49337E-09  1.0E-07
  3.750E-03  1.07092E-09  5.92687E-16  2.11652E+01  1.60004E-09  1.0E-07
  4.000E-03  1.21847E-09  5.92687E-16  2.11652E+01  1.70671E-09  1.0E-07
  4.250E-03  1.37554E-09  5.92687E-16  2.11652E+01  1.81338E-09  1.0E-07
  4.500E-03  1.54213E-09  5.92687E-16  2.11652E+01  1.92005E-09  1.0E-07
  4.750E-03  1.71823E-09  5.92686E-16  2.11652E+01  2.02672E-09  1.0E-07
  5.000E-03  1.90386E-09  5.92686E-16  2.11652E+01  2.13339E-09  1.0E-07
  5.250E-03  2.09900E-09  5.92686E-16  2.11652E+01  2.24006E-09  1.0E-07
  5.500E-03  2.30367E-09  5.92686E-16  2.11652E+01  2.34673E-09  1.0E-07
  5.750E-03  2.51785E-09  5.92685E-16  2.11652E+01  2.45340E-09  1.0E-07
  6.000E-03  2.74156E-09  5.92685E-16  2.11652E+01  2.56007E-09  1.0E-07
  6.250E-03  2.97478E-09  5.92685E-16  2.11652E+01  2.66674E-09  1.0E-07
  6.500E-03  3.21752E-09  5.92685E-16  2.11652E+01  2.77341E-09  1.0E-07
  6.750E-03  3.46978E-09  5.92684E-16  2.11651E+01  2.88008E-09  1.0E-07
  7.000E-03  3.73156E-09  5.92684E-16  2.11651E+01  2.98675E-09  1.0E-07
  7.250E-03  4.00286E-09  5.92684E-16  2.11651E+01  3.09342E-09  1.0E-07
  7.500E-03  4.28368E-09  5.92683E-16  2.11651E+01  3.20009E-09  1.0E-07
  7.750E-03  4.57402E-09  5.92683E-16  2.11651E+01  3.30676E-09  1.0E-07
  8.000E-03  4.87388E-09  5.92683E-16  2.11651E+01  3.41343E-09  1.0E-07
  8.250E-03  5.18326E-09  5.92682E-16  2.11651E+01  3.52010E-09  1.0E-07
  8.500E-03  5.50215E-09  5.92682E-16  2.11651E+01  3.62677E-09  1.0E-07
  8.750E-03  5.83057E-09  5.92681E-16  2.11650E+01  3.73344E-09  1.0E-07
  9.000E-03  6.16850E-09  5.92681E-16  2.11650E+01  3.84012E-09  1.0E-07
  9.250E-03  6.51596E-09  5.92681E-16  2.11650E+01  3.94679E-09  1.0E-07
  9.500E-03  6.87293E-09  5.92680E-16  2.11650E+01  4.05346E-09  1.0E-07
  9.750E-03  7.23942E-09  5.92680E-16  2.11650E+01  4.16013E-09  1.0E-07
  1.000E-02  7.61544E-09  5.92679E-16  2.11650E+01  4.26680E-09  1.0E-07
  1.250E-02  1.18991E-08  5.92674E-16  2.11648E+01  5.33351E-09  1.0E-07
  1.500E-02  1.71347E-08  5.92668E-16  2.11646E+01  6.40024E-09  1.0E-07
  1.750E-02  2.33223E-08  5.92661E-16  2.11643E+01  7.46697E-09  1.0E-07
  2.000E-02  3.04617E-08  5.92652E-16  2.11640E+01  8.53372E-09  1.0E-07
  2.250E-02  3.85531E-08  5.92642E-16  2.11636E+01  9.60049E-09  1.0E-07
  2.500E-02  4.75965E-08  5.92632E-16  2.11633E+01  1.06673E-08  1.0E-07
  2.750E-02  5.75917E-08  5.92620E-16  2.11628E+01  1.17341E-08  1.0E-07
  3.000E-02  6.85389E-08  5.92607E-16  2.11624E+01  1.28009E-08  1.0E-07
  3.250E-02  8.04380E-08  5.92593E-16  2.11619E+01  1.38678E-08  1.0E-07
  3.500E-02  9.32891E-08  5.92577E-16  2.11613E+01  1.49346E-08  1.0E-07
  3.750E-02  1.07092E-07  5.92561E-16  2.11607E+01  1.60015E-08  1.0E-07
  4.000E-02  1.21847E-07  5.92543E-16  2.11601E+01  1.70685E-08  1.0E-07
  4.250E-02  1.37554E-07  5.92525E-16  2.11594E+01  1.81354E-08  1.0E-07
  4.500E-02  1.54213E-07  5.92505E-16  2.11587E+01  1.92024E-08  1.0E-07
  4.750E-02  1.71823E-07  5.92484E-16  2.11580E+01  2.02695E-08  1.0E-07
  5.000E-02  1.90386E-07  5.92462E-16  2.11572E+01  2.13365E-08  1.0E-07
  5.250E-02  2.09900E-07  5.92438E-16  2.11564E+01  2.24036E-08  1.0E-07
  5.500E-02  2.30367E-07  5.92414E-16  2.11555E+01  2.34708E-08  1.0E-07
  5.750E-02  2.51785E-07  5.92389E-16  2.11546E+01  2.45380E-08  1.0E-07
  6.000E-02  2.74156E-07  5.92362E-16  2.11536E+01  2.56052E-08  1.0E-07
  6.250E-02  2.97478E-07  5.92334E-16  2.11526E+01  2.66725E-08  1.0E-07
  6.500E-02  3.21752E-07  5.92305E-16  2.11516E+01  2.77399E-08  1.0E-07
  6.750E-02  3.46978E-07  5.92275E-16  2.11505E+01  2.88072E-08  1.0E-07
  7.000E-02  3.73156E-07  5.92244E-16  2.11494E+01  2.98747E-08  1.0E-07
  7.250E-02  4.00286E-07  5.92212E-16  2.11483E+01  3.09422E-08  1.0E-07
  7.500E-02  4.28368E-07  5.92178E-16  2.11471E+01  3.20097E-08  1.0E-07
  7.750E-02  4.57402E-07  5.92144E-16  2.11458E+01  3.30774E-08  1.0E-07
  8.000E-02  4.87388E-07  5.92108E-16  2.11446E+01  3.41450E-08  1.0E-07
  8.250E-02  5.18325E-07  5.92071E-16  2.11433E+01  3.52128E-08  1.0E-07
  8.500E-02  5.50215E-07  5.92033E-16  2.11419E+01  3.62806E-08  1.0E-07
  8.750E-02  5.83057E-07  5.91994E-16  2.11405E+01  3.73484E-08  1.0E-07
  9.000E-02  6.16850E-07  5.91954E-16  2.11391E+01  3.84164E-08  1.0E-07
  9.250E-02  6.51596E-07  5.91913E-16  2.11376E+01  3.94844E-08  1.0E-07
  9.500E-02  6.87293E-07  5.91870E-16  2.11361E+01  4.05525E-08  1.0E-07
  9.750E-02  7.23942E-07  5.91827E-16  2.11345E+01  4.16206E-08  1.0E-07
  1.000E-01  7.61543E-07  5.91782E-16  2.11329E+01  4.26889E-08  1.0E-07
  1.250E-01  1.18991E-06  5.91273E-16  2.11147E+01  5.33759E-08  1.0E-07
  1.500E-01  1.71347E-06  5.90652E-16  2.10926E+01  6.40729E-08  1.0E-07
  1.750E-01  2.33223E-06  5.89919E-16  2.10664E+01  7.47817E-08  1.0E-07
  2.000E-01  3.04617E-06  5.89074E-16  2.10362E+01  8.55043E-08  1.0E-07
  2.250E-01  3.85531E-06  5.88120E-16  2.10021E+01  9.62427E-08  1.0E-07
  2.500E-01  4.75964E-06  5.87055E-16  2.09641E+01  1.06999E-07  1.0E-07
  2.750E-01  5.75916E-06  5.85881E-16  2.09222E+01  1.17775E-07  1.0E-07
  3.000E-01  6.85388E-06  5.84599E-16  2.08764E+01  1.28572E-07  1.0E-07
  3.250E-01  8.04378E-06  5.83211E-16  2.08268E+01  1.39393E-07  1.0E-07
  3.500E-01  9.32888E-06  5.81716E-16  2.07734E+01  1.50240E-07  1.0E-07
  3.750E-01  1.07092E-05  5.80116E-16  2.07163E+01  1.61114E-07  1.0E-07
  4.000E-01  1.21846E-05  5.78413E-16  2.06555E+01  1.72017E-07  1.0E-07
  4.250E-01  1.37553E-05  5.76607E-16  2.05910E+01  1.82952E-07  1.0E-07
  4.500E-01  1.54212E-05  5.74700E-16  2.05229E+01  1.93919E-07  1.0E-07
  4.750E-01  1.71822E-05  5.72694E-16  2.04513E+01  2.04922E-07  1.0E-07
  5.000E-01  1.90385E-05  5.70590E-16  2.03761E+01  2.15962E-07  1.0E-07
  5.250E-01  2.09899E-05  5.68389E-16  2.02976E+01  2.27040E-07  1.0E-07
  5.500E-01  2.30365E-05  5.66094E-16  2.02156E+01  2.38159E-07  1.0E-07
  5.750E-01  2.51783E-05  5.63706E-16  2.01303E+01  2.49320E-07  1.0E-07
  6.000E-01  2.74153E-05  5.61226E-16  2.00417E+01  2.60526E-07  1.0E-07
  6.250E-01  2.97475E-05  5.58657E-16  1.99500E+01  2.71778E-07  1.0E-07
  6.500E-01  3.21749E-05  5.56000E-16  1.98551E+01  2.83078E-07  1.0E-07
  6.750E-01  3.46974E-05  5.53257E-16  1.97572E+01  2.94427E-07  1.0E-07
  7.000E-01  3.73152E-05  5.50431E-16  1.96562E+01  3.05827E-07  1.0E-07
  7.250E-01  4.00281E-05  5.47523E-16  1.95524E+01  3.17281E-07  1.0E-07
  7.500E-01  4.28362E-05  5.44535E-16  1.94457E+01  3.28790E-07  1.0E-07
  7.750E-01  4.57395E-05  5.41470E-16  1.93362E+01  3.40355E-07  1.0E-07
  8.000E-01  4.87380E-05  5.38329E-16  1.92241E+01  3.51978E-07  1.0E-07
  8.250E-01  5.18317E-05  5.35116E-16  1.91093E+01  3.63661E-07  1.0E-07
  8.500E-01  5.50205E-05  5.31831E-16  1.89920E+01  3.75406E-07  1.0E-07
  8.750E-01  5.83045E-05  5.28477E-16  1.88723E+01  3.87213E-07  1.0E-07
  9.000E-01  6.16838E-05  5.25057E-16  1.87501E+01  3.99086E-07  1.0E-07
  9.250E-01  6.51582E-05  5.21572E-16  1.86257E+01  4.11024E-07  1.0E-07
  9.500E-01  6.87277E-05  5.18026E-16  1.84990E+01  4.23031E-07  1.0E-07
  9.750E-01  7.23925E-05  5.14420E-16  1.83703E+01  4.35107E-07  1.0E-07
  1.000E+00  7.61524E-05  5.10756E-16  1.82394E+01  4.47253E-07  1.0E-07
  1.100E+00  9.21439E-05  4.95576E-16  1.76973E+01  4.96576E-07  1.0E-07
  1.200E+00  1.09658E-04  4.79667E-16  1.71292E+01  5.47141E-07  1.0E-07
  1.300E+00  1.28695E-04  4.63179E-16  1.65404E+01  5.99031E-07  1.0E-07
  1.400E+00  1.49255E-04  4.46258E-16  1.59362E+01  6.52315E-07  1.0E-07
  1.500E+00  1.71338E-04  4.29045E-16  1.53215E+01  7.07054E-07  1.0E-07
  1.600E+00  1.94942E-04  4.11675E-16  1.47012E+01  7.63299E-07  1.0E-07
  1.700E+00  2.20070E-04  3.94271E-16  1.40797E+01  8.21089E-07  1.0E-07
  1.800E+00  2.46720E-04  3.76948E-16  1.34611E+01  8.80451E-07  1.0E-07
  1.900E+00  2.74892E-04  3.59808E-16  1.28490E+01  9.41398E-07  1.0E-07
  2.000E+00  3.04586E-04  3.42943E-16  1.22467E+01  1.00393E-06  1.0E-07
  2.100E+00  3.35803E-04  3.26431E-16  1.16571E+01  1.06805E-06  1.0E-07
  2.200E+00  3.68542E-04  3.10339E-16  1.10824E+01  1.13371E-06  1.0E-07
  2.300E+00  4.02802E-04  2.94722E-16  1.05247E+01  1.20089E-06  1.0E-07
  2.400E+00  4.38585E-04  2.79624E-16  9.98555E+00  1.26953E-06  1.0E-07
  2.500E+00  4.75889E-04  2.65078E-16  9.46611E+00  1.33958E-06  1.0E-07
  2.600E+00  5.14715E-04  2.51109E-16  8.96725E+00  1.41096E-06  1.0E-07
  2.700E+00  5.55063E-04  2.37730E-16  8.48950E+00  1.48359E-06  1.0E-07
  2.800E+00  5.96931E-04  2.24951E-16  8.03314E+00  1.55737E-06  1.0E-07
  2.900E+00  6.40321E-04  2.12771E-16  7.59819E+00  1.63220E-06  1.0E-07
  3.000E+00  6.85233E-04  2.01186E-16  7.18447E+00  1.70797E-06  1.0E-07
  3.100E+00  7.31665E-04  1.90185E-16  6.79164E+00  1.78455E-06  1.0E-07
  3.200E+00  7.79618E-04  1.79756E-16  6.41920E+00  1.86182E-06  1.0E-07
  3.300E+00  8.29092E-04  1.69881E-16  6.06656E+00  1.93965E-06  1.0E-07
  3.400E+00  8.80086E-04  1.60541E-16  5.73303E+00  2.01788E-06  1.0E-07
  3.500E+00  9.32601E-04  1.51716E-16  5.41789E+00  2.09638E-06  1.0E-07
  3.600E+00  9.86636E-04  1.43384E-16  5.12034E+00  2.17498E-06  1.0E-07
  3.700E+00  1.04219E-03  1.35522E-16  4.83959E+00  2.25352E-06  1.0E-07
  3.800E+00  1.09927E-03  1.28108E-16  4.57483E+00  2.33184E-06  1.0E-07
  3.900E+00  1.15786E-03  1.21119E-16  4.32525E+00  2.40975E-06  1.0E-07
  4.000E+00  1.21797E-03  1.14533E-16  4.09005E+00  2.48708E-06  1.0E-07
  4.100E+00  1.27961E-03  1.08328E-16  3.86846E+00  2.56364E-06  1.0E-07
  4.200E+00  1.34276E-03  1.02483E-16  3.65973E+00  2.63923E-06  1.0E-07
  4.300E+00  1.40743E-03  9.69781E-17  3.46315E+00  2.71366E-06  1.0E-07
  4.400E+00  1.47362E-03  9.17940E-17  3.27802E+00  2.78671E-06  1.0E-07
  4.500E+00  1.54133E-03  8.69123E-17  3.10369E+00  2.85819E-06  1.0E-07
  4.600E+00  1.61056E-03  8.23155E-17  2.93954E+00  2.92787E-06  1.0E-07
  4.700E+00  1.68131E-03  7.79869E-17  2.78496E+00  2.99554E-06  1.0E-07
  4.800E+00  1.75357E-03  7.39109E-17  2.63941E+00  3.06098E-06  1.0E-07
  4.900E+00  1.82735E-03  7.00726E-17  2.50234E+00  3.12398E-06  1.0E-07
  5.000E+00  1.90265E-03  6.64580E-17  2.37326E+00  3.18432E-06  1.0E-07
  5.100E+00  1.97947E-03  6.30537E-17  2.25169E+00  3.24178E-06  1.0E-07
  5.200E+00  2.05780E-03  5.98471E-17  2.13718E+00  3.29614E-06  1.0E-07
  5.300E+00  2.13765E-03  5.68265E-17  2.02931E+00  3.34720E-06  1.0E-07
  5.400E+00  2.21902E-03  5.39805E-17  1.92768E+00  3.39474E-06  1.0E-07
  5.500E+00  2.30190E-03  5.12985E-17  1.83190E+00  3.43856E-06  1.0E-07
  5.600E+00  2.38630E-03  4.87706E-17  1.74163E+00  3.47845E-06  1.0E-07
  5.700E+00  2.47222E-03  4.63874E-17  1.65652E+00  3.51421E-06  1.0E-07
  5.800E+00  2.55965E-03  4.41398E-17  1.57626E+00  3.54564E-06  1.0E-07
  5.900E+00  2.64859E-03  4.20195E-17  1.50054E+00  3.57255E-06  1.0E-07
  6.000E+00  2.73905E-03  4.00186E-17  1.42909E+00  3.59474E-06  1.0E-07
  6.100E+00  2.83103E-03  3.81298E-17  1.36164E+00  3.61201E-06  1.0E-07
  6.200E+00  2.92452E-03  3.63460E-17  1.29794E+00  3.62416E-06  1.0E-07
  6.300E+00  3.01952E-03  3.46606E-17  1.23775E+00  3.63100E-06  1.0E-07
  6.400E+00  3.11604E-03  3.30677E-17  1.18087E+00  3.63233E-06  1.0E-07
  6.500E+00  3.21407E-03  3.15614E-17  1.12708E+00  3.62795E-06  1.0E-07
  6.600E+00  3.31362E-03  3.01365E-17  1.07619E+00  3.61765E-06  1.0E-07
  6.700E+00  3.41468E-03  2.87879E-17  1.02803E+00  3.60125E-06  1.0E-07
  6.800E+00  3.51725E-03  2.75110E-17  9.82435E-01  3.57854E-06  1.0E-07
  6.900E+00  3.62133E-03  2.63014E-17  9.39241E-01  3.54931E-06  1.0E-07
  7.000E+00  3.72692E-03  2.51552E-17  8.98308E-01  3.51338E-06  1.0E-07
  7.100E+00  3.83403E-03  2.40685E-17  8.59501E-01  3.47055E-06  1.0E-07
  7.200E+00  3.94265E-03  2.30378E-17  8.22696E-01  3.42063E-06  1.0E-07
  7.300E+00  4.05278E-03  2.20600E-17  7.87775E-01  3.36344E-06  1.0E-07
  7.400E+00  4.16442E-03  2.11318E-17  7.54630E-01  3.29880E-06  1.0E-07
  7.500E+00  4.27757E-03  2.02505E-17  7.23157E-01  3.22654E-06  1.0E-07
  7.600E+00  4.39223E-03  1.94133E-17  6.93263E-01  3.14649E-06  1.0E-07
  7.700E+00  4.50840E-03  1.86179E-17  6.64857E-01  3.05851E-06  1.0E-07
  7.800E+00  4.62608E-03  1.78618E-17  6.37856E-01  2.96243E-06  1.0E-07
  7.900E+00  4.74527E-03  1.71428E-17  6.12181E-01  2.85811E-06  1.0E-07
  8.000E+00  4.86597E-03  1.64589E-17  5.87758E-01  2.74542E-06  1.0E-07
  8.100E+00  4.98817E-03  1.58081E-17  5.64519E-01  2.62421E-06  1.0E-07
  8.200E+00  5.11188E-03  1.51886E-17  5.42396E-01  2.49436E-06  1.0E-07
  8.300E+00  5.23711E-03  1.45987E-17  5.21330E-01  2.35573E-06  1.0E-07
  8.400E+00  5.36383E-03  1.40368E-17  5.01262E-01  2.20819E-06  1.0E-07
  8.500E+00  5.49207E-03  1.35012E-17  4.82136E-01  2.05160E-06  1.0E-07
  8.600E+00  5.62181E-03  1.29906E-17  4.63903E-01  1.88583E-06  1.0E-07
  8.700E+00  5.75306E-03  1.25036E-17  4.46512E-01  1.71074E-06  1.0E-07
  8.800E+00  5.88581E-03  1.20390E-17  4.29920E-01  1.52618E-06  1.0E-07
  8.900E+00  6.02007E-03  1.15955E-17  4.14082E-01  1.33201E-06  1.0E-07
  9.000E+00  6.15583E-03  1.11720E-17  3.98958E-01  0.00000E+00  1.0E-07
  9.100E+00  6.29310E-03  1.07674E-17  3.84510E-01  0.00000E+00  1.0E-07
  9.200E+00  6.43187E-03  1.03807E-17  3.70703E-01  0.00000E+00  1.0E-07
  9.300E+00  6.57214E-03  1.00111E-17  3.57503E-01  0.00000E+00  1.0E-07
  9.400E+00  6.71392E-03  9.65758E-18  3.44878E-01  0.00000E+00  1.0E-07
  9.500E+00  6.85720E-03  9.31935E-18  3.32800E-01  0.00000E+00  1.0E-07
  9.600E+00  7.00198E-03  8.99564E-18  3.21240E-01  0.00000E+00  1.0E-07
  9.700E+00  7.14827E-03  8.68571E-18  3.10172E-01  0.00000E+00  1.0E-07
  9.800E+00  7.29605E-03  8.38889E-18  2.99573E-01  0.00000E+00  1.0E-07
  9.900E+00  7.44534E-03  8.10451E-18  2.89417E-01  0.00000E+00  1.0E-07
  1.000E+01  7.59612E-03  7.83199E-18  2.79685E-01 -1.47895E-06  1.0E-07
  1.025E+01  7.97965E-03  7.19883E-18  2.57075E-01 -2.30074E-06  1.0E-07
  1.050E+01  8.37255E-03  6.62810E-18  2.36694E-01 -3.19352E-06  1.0E-07
  1.075E+01  8.77480E-03  6.11270E-18  2.18289E-01 -4.15850E-06  1.0E-07
  1.100E+01  9.18641E-03  5.64643E-18  2.01638E-01 -5.19693E-06  1.0E-07
  1.125E+01  9.60736E-03  5.22381E-18  1.86546E-01 -6.31028E-06  1.0E-07
  1.150E+01  1.00376E-02  4.84002E-18  1.72840E-01 -7.50024E-06  1.0E-07
  1.175E+01  1.04773E-02  4.49083E-18  1.60370E-01 -8.76868E-06  1.0E-07
  1.200E+01  1.09262E-02  4.17255E-18  1.49004E-01 -1.01174E-05  1.0E-07
  1.225E+01  1.13844E-02  3.88195E-18  1.38627E-01 -1.15479E-05  1.0E-07
  1.250E+01  1.18520E-02  3.61621E-18  1.29137E-01 -1.30614E-05  1.0E-07
  1.275E+01  1.23288E-02  3.37286E-18  1.20447E-01 -1.46587E-05  1.0E-07
  1.300E+01  1.28150E-02  3.14970E-18  1.12478E-01 -1.63403E-05  1.0E-07
  1.325E+01  1.33104E-02  2.94477E-18  1.05160E-01 -1.81067E-05  1.0E-07
  1.350E+01  1.38150E-02  2.75634E-18  9.84307E-02 -1.99588E-05  1.0E-07
  1.375E+01  1.43290E-02  2.58283E-18  9.22346E-02 -2.18977E-05  1.0E-07
  1.400E+01  1.48521E-02  2.42283E-18  8.65209E-02 -2.39250E-05  1.0E-07
  1.425E+01  1.53845E-02  2.27509E-18  8.12449E-02 -2.60424E-05  1.0E-07
  1.450E+01  1.59262E-02  2.13848E-18  7.63663E-02 -2.82516E-05  1.1E-07
  1.475E+01  1.64770E-02  2.01200E-18  7.18497E-02 -3.05538E-05  1.0E-07
