 #
 # Subroutine ELSEPA. Elastic scattering of electrons and positrons
 #                    by neutral atoms and positive ions
 #
 # Projectile: electron
 # Kinetic energy = 4.00000E+02 eV = 1.46997E+01 a.u.
 #
 # Element:  C,  Z =   6,  atomic weight = 1.20107E+01 g/mol
 #
 # Nuclear model: Fermi distribution
 #                Average radius = 2.45042E-13 cm
 #                Skin thickness = 5.46000E-14 cm
 #
 # Number of electrons =  6
 #
 # Electron density: analytical DHFS model
 #                   A1 =  1.53676D-01 ,   ALPHA1 = 8.04043D+00
 #                   A2 =  8.46324D-01 ,   ALPHA2 = 1.49129D+00
 #                   A3 =  0.00000D+00 ,   ALPHA3 = 1.00000D+00
 #                   Volume integral = 6.00000E+00
 #
 # Muffin-tin model: Rmt = 3.22000E-08 cm
 #
 # Furness-McCarthy exchange potential
 #
 # Total elastic cross section = 1.06093E-16 cm**2 = 3.78865E+00 a0**2
 # 1st transport cross section = 1.76566E-17 cm**2 = 6.30528E-01 a0**2
 # 2nd transport cross section = 3.14794E-17 cm**2 = 1.12415E+00 a0**2
 #
 #
 # Differential cross section:                       MU=(1-COS(THETA))/2
 #
 #  THETA        MU          DCS          DCS        Sherman      error
 #  (deg)                 (cm**2/sr)   (a0**2/sr)    function
 #----------------------------------------------------------------------
  0.000E+00  0.00000E+00  4.63298E-16  1.65447E+01  0.00000E+00  1.0E-07
  1.000E-04  7.61557E-13  4.63298E-16  1.65447E+01  1.84926E-10  1.0E-07
  1.250E-04  1.18994E-12  4.63298E-16  1.65447E+01  2.31157E-10  1.0E-07
  1.500E-04  1.71346E-12  4.63298E-16  1.65447E+01  2.77389E-10  1.0E-07
  1.750E-04  2.33225E-12  4.63298E-16  1.65447E+01  3.23620E-10  1.0E-07
  2.000E-04  3.04617E-12  4.63298E-16  1.65447E+01  3.69852E-10  1.0E-07
  2.250E-04  3.85530E-12  4.63298E-16  1.65447E+01  4.16083E-10  1.0E-07
  2.500E-04  4.75964E-12  4.63298E-16  1.65447E+01  4.62315E-10  1.0E-07
  2.750E-04  5.75917E-12  4.63298E-16  1.65447E+01  5.08546E-10  1.0E-07
  3.000E-04  6.85391E-12  4.63298E-16  1.65447E+01  5.54778E-10  1.0E-07
  3.250E-04  8.04379E-12  4.63298E-16  1.65447E+01  6.01009E-10  1.0E-07
  3.500E-04  9.32893E-12  4.63298E-16  1.65447E+01  6.47241E-10  1.0E-07
  3.750E-04  1.07092E-11  4.63298E-16  1.65447E+01  6.93472E-10  1.0E-07
  4.000E-04  1.21847E-11  4.63298E-16  1.65447E+01  7.39703E-10  1.0E-07
  4.250E-04  1.37554E-11  4.63298E-16  1.65447E+01  7.85935E-10  1.0E-07
  4.500E-04  1.54213E-11  4.63298E-16  1.65447E+01  8.32166E-10  1.0E-07
  4.750E-04  1.71823E-11  4.63298E-16  1.65447E+01  8.78398E-10  1.0E-07
  5.000E-04  1.90386E-11  4.63298E-16  1.65447E+01  9.24629E-10  1.0E-07
  5.250E-04  2.09900E-11  4.63298E-16  1.65447E+01  9.70861E-10  1.0E-07
  5.500E-04  2.30367E-11  4.63298E-16  1.65447E+01  1.01709E-09  1.0E-07
  5.750E-04  2.51785E-11  4.63298E-16  1.65447E+01  1.06332E-09  1.0E-07
  6.000E-04  2.74156E-11  4.63298E-16  1.65447E+01  1.10956E-09  1.0E-07
  6.250E-04  2.97478E-11  4.63298E-16  1.65447E+01  1.15579E-09  1.0E-07
  6.500E-04  3.21752E-11  4.63298E-16  1.65447E+01  1.20202E-09  1.0E-07
  6.750E-04  3.46979E-11  4.63298E-16  1.65447E+01  1.24825E-09  1.0E-07
  7.000E-04  3.73157E-11  4.63298E-16  1.65447E+01  1.29448E-09  1.0E-07
  7.250E-04  4.00286E-11  4.63298E-16  1.65447E+01  1.34071E-09  1.0E-07
  7.500E-04  4.28368E-11  4.63298E-16  1.65447E+01  1.38694E-09  1.0E-07
  7.750E-04  4.57402E-11  4.63298E-16  1.65447E+01  1.43318E-09  1.0E-07
  8.000E-04  4.87388E-11  4.63298E-16  1.65447E+01  1.47941E-09  1.0E-07
  8.250E-04  5.18325E-11  4.63298E-16  1.65447E+01  1.52564E-09  1.0E-07
  8.500E-04  5.50215E-11  4.63298E-16  1.65447E+01  1.57187E-09  1.0E-07
  8.750E-04  5.83057E-11  4.63298E-16  1.65447E+01  1.61810E-09  1.0E-07
  9.000E-04  6.16850E-11  4.63298E-16  1.65447E+01  1.66433E-09  1.0E-07
  9.250E-04  6.51595E-11  4.63298E-16  1.65447E+01  1.71056E-09  1.0E-07
  9.500E-04  6.87293E-11  4.63298E-16  1.65447E+01  1.75680E-09  1.0E-07
  9.750E-04  7.23943E-11  4.63298E-16  1.65447E+01  1.80303E-09  1.0E-07
  1.000E-03  7.61544E-11  4.63298E-16  1.65447E+01  1.84926E-09  1.0E-07
  1.250E-03  1.18991E-10  4.63298E-16  1.65447E+01  2.31157E-09  1.0E-07
  1.500E-03  1.71347E-10  4.63298E-16  1.65447E+01  2.77389E-09  1.0E-07
  1.750E-03  2.33223E-10  4.63298E-16  1.65447E+01  3.23620E-09  1.0E-07
  2.000E-03  3.04617E-10  4.63298E-16  1.65447E+01  3.69852E-09  1.0E-07
  2.250E-03  3.85531E-10  4.63298E-16  1.65447E+01  4.16083E-09  1.0E-07
  2.500E-03  4.75965E-10  4.63298E-16  1.65447E+01  4.62315E-09  1.0E-07
  2.750E-03  5.75917E-10  4.63298E-16  1.65447E+01  5.08546E-09  1.0E-07
  3.000E-03  6.85389E-10  4.63298E-16  1.65447E+01  5.54778E-09  1.0E-07
  3.250E-03  8.04380E-10  4.63298E-16  1.65447E+01  6.01009E-09  1.0E-07
  3.500E-03  9.32891E-10  4.63298E-16  1.65447E+01  6.47241E-09  1.0E-07
  3.750E-03  1.07092E-09  4.63298E-16  1.65447E+01  6.93472E-09  1.0E-07
  4.000E-03  1.21847E-09  4.63298E-16  1.65447E+01  7.39704E-09  1.0E-07
  4.250E-03  1.37554E-09  4.63298E-16  1.65447E+01  7.85935E-09  1.0E-07
  4.500E-03  1.54213E-09  4.63298E-16  1.65447E+01  8.32166E-09  1.0E-07
  4.750E-03  1.71823E-09  4.63298E-16  1.65447E+01  8.78398E-09  1.0E-07
  5.000E-03  1.90386E-09  4.63298E-16  1.65447E+01  9.24629E-09  1.0E-07
  5.250E-03  2.09900E-09  4.63298E-16  1.65447E+01  9.70861E-09  1.0E-07
  5.500E-03  2.30367E-09  4.63298E-16  1.65447E+01  1.01709E-08  1.0E-07
  5.750E-03  2.51785E-09  4.63298E-16  1.65447E+01  1.06332E-08  1.0E-07
  6.000E-03  2.74156E-09  4.63298E-16  1.65447E+01  1.10956E-08  1.0E-07
  6.250E-03  2.97478E-09  4.63298E-16  1.65447E+01  1.15579E-08  1.0E-07
  6.500E-03  3.21752E-09  4.63298E-16  1.65447E+01  1.20202E-08  1.0E-07
  6.750E-03  3.46978E-09  4.63298E-16  1.65447E+01  1.24825E-08  1.0E-07
  7.000E-03  3.73156E-09  4.63298E-16  1.65447E+01  1.29448E-08  1.0E-07
  7.250E-03  4.00286E-09  4.63298E-16  1.65447E+01  1.34071E-08  1.0E-07
  7.500E-03  4.28368E-09  4.63298E-16  1.65447E+01  1.38694E-08  1.0E-07
  7.750E-03  4.57402E-09  4.63298E-16  1.65447E+01  1.43318E-08  1.0E-07
  8.000E-03  4.87388E-09  4.63298E-16  1.65447E+01  1.47941E-08  1.0E-07
  8.250E-03  5.18326E-09  4.63298E-16  1.65447E+01  1.52564E-08  1.0E-07
  8.500E-03  5.50215E-09  4.63298E-16  1.65447E+01  1.57187E-08  1.0E-07
  8.750E-03  5.83057E-09  4.63298E-16  1.65447E+01  1.61810E-08  1.0E-07
  9.000E-03  6.16850E-09  4.63298E-16  1.65447E+01  1.66433E-08  1.0E-07
  9.250E-03  6.51596E-09  4.63298E-16  1.65447E+01  1.71056E-08  1.0E-07
  9.500E-03  6.87293E-09  4.63298E-16  1.65447E+01  1.75680E-08  1.0E-07
  9.750E-03  7.23942E-09  4.63298E-16  1.65447E+01  1.80303E-08  1.0E-07
  1.000E-02  7.61544E-09  4.63298E-16  1.65447E+01  1.84926E-08  1.0E-07
  1.250E-02  1.18991E-08  4.63298E-16  1.65447E+01  2.31157E-08  1.0E-07
  1.500E-02  1.71347E-08  4.63297E-16  1.65447E+01  2.77389E-08  1.0E-07
  1.750E-02  2.33223E-08  4.63297E-16  1.65446E+01  3.23621E-08  1.0E-07
  2.000E-02  3.04617E-08  4.63297E-16  1.65446E+01  3.69852E-08  1.0E-07
  2.250E-02  3.85531E-08  4.63296E-16  1.65446E+01  4.16084E-08  1.0E-07
  2.500E-02  4.75965E-08  4.63296E-16  1.65446E+01  4.62316E-08  1.0E-07
  2.750E-02  5.75917E-08  4.63295E-16  1.65446E+01  5.08547E-08  1.0E-07
  3.000E-02  6.85389E-08  4.63295E-16  1.65446E+01  5.54779E-08  1.0E-07
  3.250E-02  8.04380E-08  4.63294E-16  1.65445E+01  6.01011E-08  1.0E-07
  3.500E-02  9.32891E-08  4.63294E-16  1.65445E+01  6.47243E-08  1.0E-07
  3.750E-02  1.07092E-07  4.63293E-16  1.65445E+01  6.93475E-08  1.0E-07
  4.000E-02  1.21847E-07  4.63292E-16  1.65445E+01  7.39708E-08  1.0E-07
  4.250E-02  1.37554E-07  4.63291E-16  1.65444E+01  7.85940E-08  1.0E-07
  4.500E-02  1.54213E-07  4.63291E-16  1.65444E+01  8.32172E-08  1.0E-07
  4.750E-02  1.71823E-07  4.63290E-16  1.65444E+01  8.78405E-08  1.0E-07
  5.000E-02  1.90386E-07  4.63289E-16  1.65443E+01  9.24637E-08  1.0E-07
  5.250E-02  2.09900E-07  4.63288E-16  1.65443E+01  9.70870E-08  1.0E-07
  5.500E-02  2.30367E-07  4.63287E-16  1.65443E+01  1.01710E-07  1.0E-07
  5.750E-02  2.51785E-07  4.63286E-16  1.65442E+01  1.06334E-07  1.0E-07
  6.000E-02  2.74156E-07  4.63284E-16  1.65442E+01  1.10957E-07  1.0E-07
  6.250E-02  2.97478E-07  4.63283E-16  1.65441E+01  1.15580E-07  1.0E-07
  6.500E-02  3.21752E-07  4.63282E-16  1.65441E+01  1.20204E-07  1.0E-07
  6.750E-02  3.46978E-07  4.63281E-16  1.65441E+01  1.24827E-07  1.0E-07
  7.000E-02  3.73156E-07  4.63279E-16  1.65440E+01  1.29450E-07  1.0E-07
  7.250E-02  4.00286E-07  4.63278E-16  1.65440E+01  1.34074E-07  1.0E-07
  7.500E-02  4.28368E-07  4.63277E-16  1.65439E+01  1.38697E-07  1.0E-07
  7.750E-02  4.57402E-07  4.63275E-16  1.65439E+01  1.43321E-07  1.0E-07
  8.000E-02  4.87388E-07  4.63274E-16  1.65438E+01  1.47944E-07  1.0E-07
  8.250E-02  5.18325E-07  4.63272E-16  1.65437E+01  1.52567E-07  1.0E-07
  8.500E-02  5.50215E-07  4.63270E-16  1.65437E+01  1.57191E-07  1.0E-07
  8.750E-02  5.83057E-07  4.63269E-16  1.65436E+01  1.61814E-07  1.0E-07
  9.000E-02  6.16850E-07  4.63267E-16  1.65436E+01  1.66438E-07  1.0E-07
  9.250E-02  6.51596E-07  4.63265E-16  1.65435E+01  1.71062E-07  1.0E-07
  9.500E-02  6.87293E-07  4.63263E-16  1.65434E+01  1.75685E-07  1.0E-07
  9.750E-02  7.23942E-07  4.63262E-16  1.65434E+01  1.80309E-07  1.0E-07
  1.000E-01  7.61543E-07  4.63260E-16  1.65433E+01  1.84932E-07  1.0E-07
  1.250E-01  1.18991E-06  4.63238E-16  1.65425E+01  2.31170E-07  1.0E-07
  1.500E-01  1.71347E-06  4.63211E-16  1.65416E+01  2.77411E-07  1.0E-07
  1.750E-01  2.33223E-06  4.63180E-16  1.65405E+01  3.23655E-07  1.0E-07
  2.000E-01  3.04617E-06  4.63144E-16  1.65392E+01  3.69904E-07  1.0E-07
  2.250E-01  3.85531E-06  4.63103E-16  1.65377E+01  4.16157E-07  1.0E-07
  2.500E-01  4.75964E-06  4.63057E-16  1.65361E+01  4.62416E-07  1.0E-07
  2.750E-01  5.75916E-06  4.63006E-16  1.65342E+01  5.08681E-07  1.0E-07
  3.000E-01  6.85388E-06  4.62950E-16  1.65323E+01  5.54953E-07  1.0E-07
  3.250E-01  8.04378E-06  4.62890E-16  1.65301E+01  6.01232E-07  1.0E-07
  3.500E-01  9.32888E-06  4.62825E-16  1.65278E+01  6.47518E-07  1.0E-07
  3.750E-01  1.07092E-05  4.62755E-16  1.65253E+01  6.93814E-07  1.0E-07
  4.000E-01  1.21846E-05  4.62680E-16  1.65226E+01  7.40118E-07  1.0E-07
  4.250E-01  1.37553E-05  4.62600E-16  1.65198E+01  7.86432E-07  1.0E-07
  4.500E-01  1.54212E-05  4.62516E-16  1.65167E+01  8.32757E-07  1.0E-07
  4.750E-01  1.71822E-05  4.62427E-16  1.65136E+01  8.79092E-07  1.0E-07
  5.000E-01  1.90385E-05  4.62333E-16  1.65102E+01  9.25439E-07  1.0E-07
  5.250E-01  2.09899E-05  4.62234E-16  1.65067E+01  9.71798E-07  1.0E-07
  5.500E-01  2.30365E-05  4.62130E-16  1.65030E+01  1.01817E-06  1.0E-07
  5.750E-01  2.51783E-05  4.62022E-16  1.64991E+01  1.06456E-06  1.0E-07
  6.000E-01  2.74153E-05  4.61908E-16  1.64951E+01  1.11095E-06  1.0E-07
  6.250E-01  2.97475E-05  4.61790E-16  1.64908E+01  1.15737E-06  1.0E-07
  6.500E-01  3.21749E-05  4.61668E-16  1.64865E+01  1.20380E-06  1.0E-07
  6.750E-01  3.46974E-05  4.61540E-16  1.64819E+01  1.25024E-06  1.0E-07
  7.000E-01  3.73152E-05  4.61408E-16  1.64772E+01  1.29670E-06  1.0E-07
  7.250E-01  4.00281E-05  4.61271E-16  1.64723E+01  1.34318E-06  1.0E-07
  7.500E-01  4.28362E-05  4.61129E-16  1.64672E+01  1.38968E-06  1.0E-07
  7.750E-01  4.57395E-05  4.60983E-16  1.64620E+01  1.43619E-06  1.0E-07
  8.000E-01  4.87380E-05  4.60831E-16  1.64566E+01  1.48272E-06  1.0E-07
  8.250E-01  5.18317E-05  4.60675E-16  1.64510E+01  1.52928E-06  1.0E-07
  8.500E-01  5.50205E-05  4.60515E-16  1.64453E+01  1.57585E-06  1.0E-07
  8.750E-01  5.83045E-05  4.60349E-16  1.64394E+01  1.62244E-06  1.0E-07
  9.000E-01  6.16838E-05  4.60179E-16  1.64333E+01  1.66906E-06  1.0E-07
  9.250E-01  6.51582E-05  4.60004E-16  1.64270E+01  1.71569E-06  1.0E-07
  9.500E-01  6.87277E-05  4.59824E-16  1.64206E+01  1.76235E-06  1.0E-07
  9.750E-01  7.23925E-05  4.59640E-16  1.64141E+01  1.80903E-06  1.0E-07
  1.000E+00  7.61524E-05  4.59451E-16  1.64073E+01  1.85574E-06  1.0E-07
  1.100E+00  9.21439E-05  4.58649E-16  1.63786E+01  2.04281E-06  1.0E-07
  1.200E+00  1.09658E-04  4.57772E-16  1.63473E+01  2.23030E-06  1.0E-07
  1.300E+00  1.28695E-04  4.56822E-16  1.63134E+01  2.41827E-06  1.0E-07
  1.400E+00  1.49255E-04  4.55798E-16  1.62769E+01  2.60674E-06  1.0E-07
  1.500E+00  1.71338E-04  4.54702E-16  1.62377E+01  2.79575E-06  1.0E-07
  1.600E+00  1.94942E-04  4.53535E-16  1.61960E+01  2.98534E-06  1.0E-07
  1.700E+00  2.20070E-04  4.52296E-16  1.61518E+01  3.17556E-06  1.0E-07
  1.800E+00  2.46720E-04  4.50988E-16  1.61051E+01  3.36643E-06  1.0E-07
  1.900E+00  2.74892E-04  4.49610E-16  1.60559E+01  3.55800E-06  1.0E-07
  2.000E+00  3.04586E-04  4.48164E-16  1.60042E+01  3.75031E-06  1.0E-07
  2.100E+00  3.35803E-04  4.46650E-16  1.59502E+01  3.94339E-06  1.0E-07
  2.200E+00  3.68542E-04  4.45070E-16  1.58937E+01  4.13729E-06  1.0E-07
  2.300E+00  4.02802E-04  4.43425E-16  1.58350E+01  4.33204E-06  1.0E-07
  2.400E+00  4.38585E-04  4.41715E-16  1.57739E+01  4.52768E-06  1.0E-07
  2.500E+00  4.75889E-04  4.39941E-16  1.57106E+01  4.72425E-06  1.0E-07
  2.600E+00  5.14715E-04  4.38106E-16  1.56450E+01  4.92179E-06  1.0E-07
  2.700E+00  5.55063E-04  4.36209E-16  1.55773E+01  5.12033E-06  1.0E-07
  2.800E+00  5.96931E-04  4.34253E-16  1.55075E+01  5.31991E-06  1.0E-07
  2.900E+00  6.40321E-04  4.32238E-16  1.54355E+01  5.52058E-06  1.0E-07
  3.000E+00  6.85233E-04  4.30165E-16  1.53615E+01  5.72236E-06  1.0E-07
  3.100E+00  7.31665E-04  4.28036E-16  1.52855E+01  5.92530E-06  1.0E-07
  3.200E+00  7.79618E-04  4.25853E-16  1.52075E+01  6.12944E-06  1.0E-07
  3.300E+00  8.29092E-04  4.23615E-16  1.51276E+01  6.33481E-06  1.0E-07
  3.400E+00  8.80086E-04  4.21326E-16  1.50458E+01  6.54144E-06  1.0E-07
  3.500E+00  9.32601E-04  4.18986E-16  1.49622E+01  6.74939E-06  1.0E-07
  3.600E+00  9.86636E-04  4.16596E-16  1.48769E+01  6.95868E-06  1.0E-07
  3.700E+00  1.04219E-03  4.14158E-16  1.47898E+01  7.16935E-06  1.0E-07
  3.800E+00  1.09927E-03  4.11673E-16  1.47011E+01  7.38144E-06  1.0E-07
  3.900E+00  1.15786E-03  4.09143E-16  1.46108E+01  7.59499E-06  1.0E-07
  4.000E+00  1.21797E-03  4.06569E-16  1.45189E+01  7.81003E-06  1.0E-07
  4.100E+00  1.27961E-03  4.03953E-16  1.44254E+01  8.02659E-06  1.0E-07
  4.200E+00  1.34276E-03  4.01296E-16  1.43305E+01  8.24473E-06  1.0E-07
  4.300E+00  1.40743E-03  3.98599E-16  1.42342E+01  8.46446E-06  1.0E-07
  4.400E+00  1.47362E-03  3.95865E-16  1.41366E+01  8.68583E-06  1.0E-07
  4.500E+00  1.54133E-03  3.93094E-16  1.40376E+01  8.90887E-06  1.0E-07
  4.600E+00  1.61056E-03  3.90288E-16  1.39374E+01  9.13363E-06  1.0E-07
  4.700E+00  1.68131E-03  3.87449E-16  1.38360E+01  9.36012E-06  1.0E-07
  4.800E+00  1.75357E-03  3.84577E-16  1.37335E+01  9.58840E-06  1.0E-07
  4.900E+00  1.82735E-03  3.81675E-16  1.36299E+01  9.81849E-06  1.0E-07
  5.000E+00  1.90265E-03  3.78744E-16  1.35252E+01  1.00504E-05  1.0E-07
  5.100E+00  1.97947E-03  3.75786E-16  1.34196E+01  1.02842E-05  1.0E-07
  5.200E+00  2.05780E-03  3.72801E-16  1.33130E+01  1.05200E-05  1.0E-07
  5.300E+00  2.13765E-03  3.69792E-16  1.32055E+01  1.07577E-05  1.0E-07
  5.400E+00  2.21902E-03  3.66760E-16  1.30972E+01  1.09973E-05  1.0E-07
  5.500E+00  2.30190E-03  3.63706E-16  1.29882E+01  1.12390E-05  1.0E-07
  5.600E+00  2.38630E-03  3.60632E-16  1.28784E+01  1.14828E-05  1.0E-07
  5.700E+00  2.47222E-03  3.57539E-16  1.27680E+01  1.17286E-05  1.0E-07
  5.800E+00  2.55965E-03  3.54429E-16  1.26569E+01  1.19765E-05  1.0E-07
  5.900E+00  2.64859E-03  3.51303E-16  1.25453E+01  1.22266E-05  1.0E-07
  6.000E+00  2.73905E-03  3.48162E-16  1.24331E+01  1.24789E-05  1.0E-07
  6.100E+00  2.83103E-03  3.45009E-16  1.23205E+01  1.27333E-05  1.0E-07
  6.200E+00  2.92452E-03  3.41844E-16  1.22075E+01  1.29900E-05  1.0E-07
  6.300E+00  3.01952E-03  3.38668E-16  1.20941E+01  1.32490E-05  1.0E-07
  6.400E+00  3.11604E-03  3.35483E-16  1.19803E+01  1.35103E-05  1.0E-07
  6.500E+00  3.21407E-03  3.32291E-16  1.18663E+01  1.37739E-05  1.0E-07
  6.600E+00  3.31362E-03  3.29092E-16  1.17521E+01  1.40398E-05  1.0E-07
  6.700E+00  3.41468E-03  3.25888E-16  1.16377E+01  1.43081E-05  1.0E-07
  6.800E+00  3.51725E-03  3.22680E-16  1.15231E+01  1.45789E-05  1.0E-07
  6.900E+00  3.62133E-03  3.19470E-16  1.14085E+01  1.48521E-05  1.0E-07
  7.000E+00  3.72692E-03  3.16258E-16  1.12938E+01  1.51277E-05  1.0E-07
  7.100E+00  3.83403E-03  3.13046E-16  1.11791E+01  1.54058E-05  1.0E-07
  7.200E+00  3.94265E-03  3.09834E-16  1.10644E+01  1.56865E-05  1.0E-07
  7.300E+00  4.05278E-03  3.06625E-16  1.09498E+01  1.59697E-05  1.0E-07
  7.400E+00  4.16442E-03  3.03419E-16  1.08353E+01  1.62554E-05  1.0E-07
  7.500E+00  4.27757E-03  3.00217E-16  1.07210E+01  1.65437E-05  1.0E-07
  7.600E+00  4.39223E-03  2.97021E-16  1.06068E+01  1.68347E-05  1.0E-07
  7.700E+00  4.50840E-03  2.93831E-16  1.04929E+01  1.71283E-05  1.0E-07
  7.800E+00  4.62608E-03  2.90648E-16  1.03792E+01  1.74245E-05  1.0E-07
  7.900E+00  4.74527E-03  2.87474E-16  1.02659E+01  1.77234E-05  1.0E-07
  8.000E+00  4.86597E-03  2.84308E-16  1.01528E+01  1.80250E-05  1.0E-07
  8.100E+00  4.98817E-03  2.81154E-16  1.00402E+01  1.83293E-05  1.0E-07
  8.200E+00  5.11188E-03  2.78010E-16  9.92791E+00  1.86363E-05  1.0E-07
  8.300E+00  5.23711E-03  2.74878E-16  9.81608E+00  1.89461E-05  1.0E-07
  8.400E+00  5.36383E-03  2.71759E-16  9.70470E+00  1.92587E-05  1.0E-07
  8.500E+00  5.49207E-03  2.68654E-16  9.59381E+00  1.95740E-05  1.0E-07
  8.600E+00  5.62181E-03  2.65563E-16  9.48344E+00  1.98922E-05  1.0E-07
  8.700E+00  5.75306E-03  2.62488E-16  9.37361E+00  2.02131E-05  1.0E-07
  8.800E+00  5.88581E-03  2.59428E-16  9.26435E+00  2.05369E-05  1.0E-07
  8.900E+00  6.02007E-03  2.56385E-16  9.15569E+00  2.08635E-05  1.0E-07
  9.000E+00  6.15583E-03  2.53360E-16  9.04764E+00  2.11930E-05  1.0E-07
  9.100E+00  6.29310E-03  2.50352E-16  8.94024E+00  2.15253E-05  1.0E-07
  9.200E+00  6.43187E-03  2.47363E-16  8.83350E+00  2.18605E-05  1.0E-07
  9.300E+00  6.57214E-03  2.44394E-16  8.72745E+00  2.21986E-05  1.0E-07
  9.400E+00  6.71392E-03  2.41444E-16  8.62210E+00  2.25395E-05  1.0E-07
  9.500E+00  6.85720E-03  2.38514E-16  8.51748E+00  2.28834E-05  1.0E-07
  9.600E+00  7.00198E-03  2.35605E-16  8.41361E+00  2.32302E-05  1.0E-07
  9.700E+00  7.14827E-03  2.32717E-16  8.31049E+00  2.35798E-05  1.0E-07
  9.800E+00  7.29605E-03  2.29852E-16  8.20815E+00  2.39324E-05  1.0E-07
  9.900E+00  7.44534E-03  2.27008E-16  8.10661E+00  2.42879E-05  1.0E-07
  1.000E+01  7.59612E-03  2.24187E-16  8.00588E+00  2.46464E-05  1.0E-07
  1.025E+01  7.97965E-03  2.17237E-16  7.75766E+00  2.55552E-05  1.0E-07
  1.050E+01  8.37255E-03  2.10435E-16  7.51479E+00  2.64824E-05  1.0E-07
  1.075E+01  8.77480E-03  2.03788E-16  7.27740E+00  2.74277E-05  1.0E-07
  1.100E+01  9.18641E-03  1.97298E-16  7.04564E+00  2.83913E-05  1.0E-07
  1.125E+01  9.60736E-03  1.90968E-16  6.81961E+00  2.93728E-05  1.0E-07
  1.150E+01  1.00376E-02  1.84801E-16  6.59938E+00  3.03723E-05  1.0E-07
  1.175E+01  1.04773E-02  1.78798E-16  6.38500E+00  3.13894E-05  1.0E-07
  1.200E+01  1.09262E-02  1.72960E-16  6.17650E+00  3.24240E-05  1.0E-07
  1.225E+01  1.13844E-02  1.67286E-16  5.97388E+00  3.34757E-05  1.0E-07
  1.250E+01  1.18520E-02  1.61776E-16  5.77713E+00  3.45443E-05  1.0E-07
  1.275E+01  1.23288E-02  1.56430E-16  5.58622E+00  3.56293E-05  1.0E-07
  1.300E+01  1.28150E-02  1.51246E-16  5.40110E+00  3.67305E-05  1.0E-07
  1.325E+01  1.33104E-02  1.46222E-16  5.22169E+00  3.78473E-05  1.0E-07
  1.350E+01  1.38150E-02  1.41357E-16  5.04794E+00  3.89792E-05  1.0E-07
  1.375E+01  1.43290E-02  1.36647E-16  4.87974E+00  4.01258E-05  1.0E-07
  1.400E+01  1.48521E-02  1.32090E-16  4.71701E+00  4.12865E-05  1.0E-07
  1.425E+01  1.53845E-02  1.27683E-16  4.55963E+00  4.24607E-05  1.0E-07
  1.450E+01  1.59262E-02  1.23422E-16  4.40749E+00  4.36477E-05  1.0E-07
  1.475E+01  1.64770E-02  1.19306E-16  4.26048E+00  4.48469E-05  1.0E-07
