 #
 # Subroutine ELSEPA. Elastic scattering of electrons and positrons
 #                    by neutral atoms and positive ions
 #
 # Projectile: electron
 # Kinetic energy = 8.00000E+02 eV = 2.93995E+01 a.u.
 #
 # Element:  C,  Z =   6,  atomic weight = 1.20107E+01 g/mol
 #
 # Nuclear model: Fermi distribution
 #                Average radius = 2.45042E-13 cm
 #                Skin thickness = 5.46000E-14 cm
 #
 # Number of electrons =  6
 #
 # Electron density: analytical DHFS model
 #                   A1 =  1.53676D-01 ,   ALPHA1 = 8.04043D+00
 #                   A2 =  8.46324D-01 ,   ALPHA2 = 1.49129D+00
 #                   A3 =  0.00000D+00 ,   ALPHA3 = 1.00000D+00
 #                   Volume integral = 6.00000E+00
 #
 # Muffin-tin model: Rmt = 3.22000E-08 cm
 #
 # Furness-McCarthy exchange potential
 #
 # Total elastic cross section = 6.10662E-17 cm**2 = 2.18071E+00 a0**2
 # 1st transport cross section = 5.76143E-18 cm**2 = 2.05744E-01 a0**2
 # 2nd transport cross section = 1.16703E-17 cm**2 = 4.16752E-01 a0**2
 #
 #
 # Differential cross section:                       MU=(1-COS(THETA))/2
 #
 #  THETA        MU          DCS          DCS        Sherman      error
 #  (deg)                 (cm**2/sr)   (a0**2/sr)    function
 #----------------------------------------------------------------------
  0.000E+00  0.00000E+00  5.11666E-16  1.82719E+01  0.00000E+00  1.0E-07
  1.000E-04  7.61557E-13  5.11666E-16  1.82719E+01  1.38177E-10  1.0E-07
  1.250E-04  1.18994E-12  5.11666E-16  1.82719E+01  1.72721E-10  1.0E-07
  1.500E-04  1.71346E-12  5.11666E-16  1.82719E+01  2.07265E-10  1.0E-07
  1.750E-04  2.33225E-12  5.11666E-16  1.82719E+01  2.41810E-10  1.0E-07
  2.000E-04  3.04617E-12  5.11666E-16  1.82719E+01  2.76354E-10  1.0E-07
  2.250E-04  3.85530E-12  5.11666E-16  1.82719E+01  3.10898E-10  1.0E-07
  2.500E-04  4.75964E-12  5.11666E-16  1.82719E+01  3.45442E-10  1.0E-07
  2.750E-04  5.75917E-12  5.11666E-16  1.82719E+01  3.79987E-10  1.0E-07
  3.000E-04  6.85391E-12  5.11666E-16  1.82719E+01  4.14531E-10  1.0E-07
  3.250E-04  8.04379E-12  5.11666E-16  1.82719E+01  4.49075E-10  1.0E-07
  3.500E-04  9.32893E-12  5.11666E-16  1.82719E+01  4.83619E-10  1.0E-07
  3.750E-04  1.07092E-11  5.11666E-16  1.82719E+01  5.18164E-10  1.0E-07
  4.000E-04  1.21847E-11  5.11666E-16  1.82719E+01  5.52708E-10  1.0E-07
  4.250E-04  1.37554E-11  5.11666E-16  1.82719E+01  5.87252E-10  1.0E-07
  4.500E-04  1.54213E-11  5.11666E-16  1.82719E+01  6.21796E-10  1.0E-07
  4.750E-04  1.71823E-11  5.11666E-16  1.82719E+01  6.56341E-10  1.0E-07
  5.000E-04  1.90386E-11  5.11666E-16  1.82719E+01  6.90885E-10  1.0E-07
  5.250E-04  2.09900E-11  5.11666E-16  1.82719E+01  7.25429E-10  1.0E-07
  5.500E-04  2.30367E-11  5.11666E-16  1.82719E+01  7.59973E-10  1.0E-07
  5.750E-04  2.51785E-11  5.11666E-16  1.82719E+01  7.94518E-10  1.0E-07
  6.000E-04  2.74156E-11  5.11666E-16  1.82719E+01  8.29062E-10  1.0E-07
  6.250E-04  2.97478E-11  5.11666E-16  1.82719E+01  8.63606E-10  1.0E-07
  6.500E-04  3.21752E-11  5.11666E-16  1.82719E+01  8.98150E-10  1.0E-07
  6.750E-04  3.46979E-11  5.11666E-16  1.82719E+01  9.32695E-10  1.0E-07
  7.000E-04  3.73157E-11  5.11666E-16  1.82719E+01  9.67239E-10  1.0E-07
  7.250E-04  4.00286E-11  5.11666E-16  1.82719E+01  1.00178E-09  1.0E-07
  7.500E-04  4.28368E-11  5.11666E-16  1.82719E+01  1.03633E-09  1.0E-07
  7.750E-04  4.57402E-11  5.11666E-16  1.82719E+01  1.07087E-09  1.0E-07
  8.000E-04  4.87388E-11  5.11666E-16  1.82719E+01  1.10542E-09  1.0E-07
  8.250E-04  5.18325E-11  5.11666E-16  1.82719E+01  1.13996E-09  1.0E-07
  8.500E-04  5.50215E-11  5.11666E-16  1.82719E+01  1.17450E-09  1.0E-07
  8.750E-04  5.83057E-11  5.11666E-16  1.82719E+01  1.20905E-09  1.0E-07
  9.000E-04  6.16850E-11  5.11666E-16  1.82719E+01  1.24359E-09  1.0E-07
  9.250E-04  6.51595E-11  5.11666E-16  1.82719E+01  1.27814E-09  1.0E-07
  9.500E-04  6.87293E-11  5.11666E-16  1.82719E+01  1.31268E-09  1.0E-07
  9.750E-04  7.23943E-11  5.11666E-16  1.82719E+01  1.34723E-09  1.0E-07
  1.000E-03  7.61544E-11  5.11666E-16  1.82719E+01  1.38177E-09  1.0E-07
  1.250E-03  1.18991E-10  5.11666E-16  1.82719E+01  1.72721E-09  1.0E-07
  1.500E-03  1.71347E-10  5.11666E-16  1.82719E+01  2.07265E-09  1.0E-07
  1.750E-03  2.33223E-10  5.11666E-16  1.82719E+01  2.41810E-09  1.0E-07
  2.000E-03  3.04617E-10  5.11666E-16  1.82719E+01  2.76354E-09  1.0E-07
  2.250E-03  3.85531E-10  5.11666E-16  1.82719E+01  3.10898E-09  1.0E-07
  2.500E-03  4.75965E-10  5.11666E-16  1.82719E+01  3.45442E-09  1.0E-07
  2.750E-03  5.75917E-10  5.11666E-16  1.82719E+01  3.79987E-09  1.0E-07
  3.000E-03  6.85389E-10  5.11666E-16  1.82719E+01  4.14531E-09  1.0E-07
  3.250E-03  8.04380E-10  5.11666E-16  1.82719E+01  4.49075E-09  1.0E-07
  3.500E-03  9.32891E-10  5.11666E-16  1.82719E+01  4.83619E-09  1.0E-07
  3.750E-03  1.07092E-09  5.11666E-16  1.82719E+01  5.18164E-09  1.0E-07
  4.000E-03  1.21847E-09  5.11666E-16  1.82719E+01  5.52708E-09  1.0E-07
  4.250E-03  1.37554E-09  5.11666E-16  1.82719E+01  5.87252E-09  1.0E-07
  4.500E-03  1.54213E-09  5.11666E-16  1.82719E+01  6.21796E-09  1.0E-07
  4.750E-03  1.71823E-09  5.11666E-16  1.82719E+01  6.56341E-09  1.0E-07
  5.000E-03  1.90386E-09  5.11666E-16  1.82719E+01  6.90885E-09  1.0E-07
  5.250E-03  2.09900E-09  5.11666E-16  1.82719E+01  7.25429E-09  1.0E-07
  5.500E-03  2.30367E-09  5.11665E-16  1.82719E+01  7.59973E-09  1.0E-07
  5.750E-03  2.51785E-09  5.11665E-16  1.82719E+01  7.94518E-09  1.0E-07
  6.000E-03  2.74156E-09  5.11665E-16  1.82719E+01  8.29062E-09  1.0E-07
  6.250E-03  2.97478E-09  5.11665E-16  1.82719E+01  8.63606E-09  1.0E-07
  6.500E-03  3.21752E-09  5.11665E-16  1.82719E+01  8.98151E-09  1.0E-07
  6.750E-03  3.46978E-09  5.11665E-16  1.82719E+01  9.32695E-09  1.0E-07
  7.000E-03  3.73156E-09  5.11665E-16  1.82719E+01  9.67239E-09  1.0E-07
  7.250E-03  4.00286E-09  5.11665E-16  1.82719E+01  1.00178E-08  1.0E-07
  7.500E-03  4.28368E-09  5.11665E-16  1.82719E+01  1.03633E-08  1.0E-07
  7.750E-03  4.57402E-09  5.11665E-16  1.82719E+01  1.07087E-08  1.0E-07
  8.000E-03  4.87388E-09  5.11665E-16  1.82719E+01  1.10542E-08  1.0E-07
  8.250E-03  5.18326E-09  5.11665E-16  1.82719E+01  1.13996E-08  1.0E-07
  8.500E-03  5.50215E-09  5.11665E-16  1.82719E+01  1.17450E-08  1.0E-07
  8.750E-03  5.83057E-09  5.11665E-16  1.82719E+01  1.20905E-08  1.0E-07
  9.000E-03  6.16850E-09  5.11665E-16  1.82719E+01  1.24359E-08  1.0E-07
  9.250E-03  6.51596E-09  5.11665E-16  1.82719E+01  1.27814E-08  1.0E-07
  9.500E-03  6.87293E-09  5.11665E-16  1.82719E+01  1.31268E-08  1.0E-07
  9.750E-03  7.23942E-09  5.11665E-16  1.82719E+01  1.34723E-08  1.0E-07
  1.000E-02  7.61544E-09  5.11665E-16  1.82719E+01  1.38177E-08  1.0E-07
  1.250E-02  1.18991E-08  5.11664E-16  1.82719E+01  1.72721E-08  1.0E-07
  1.500E-02  1.71347E-08  5.11664E-16  1.82719E+01  2.07266E-08  1.0E-07
  1.750E-02  2.33223E-08  5.11663E-16  1.82718E+01  2.41810E-08  1.0E-07
  2.000E-02  3.04617E-08  5.11662E-16  1.82718E+01  2.76355E-08  1.0E-07
  2.250E-02  3.85531E-08  5.11662E-16  1.82718E+01  3.10899E-08  1.0E-07
  2.500E-02  4.75965E-08  5.11661E-16  1.82717E+01  3.45444E-08  1.0E-07
  2.750E-02  5.75917E-08  5.11660E-16  1.82717E+01  3.79988E-08  1.0E-07
  3.000E-02  6.85389E-08  5.11658E-16  1.82717E+01  4.14533E-08  1.0E-07
  3.250E-02  8.04380E-08  5.11657E-16  1.82716E+01  4.49078E-08  1.0E-07
  3.500E-02  9.32891E-08  5.11656E-16  1.82716E+01  4.83623E-08  1.0E-07
  3.750E-02  1.07092E-07  5.11654E-16  1.82715E+01  5.18168E-08  1.0E-07
  4.000E-02  1.21847E-07  5.11653E-16  1.82714E+01  5.52713E-08  1.0E-07
  4.250E-02  1.37554E-07  5.11651E-16  1.82714E+01  5.87258E-08  1.0E-07
  4.500E-02  1.54213E-07  5.11649E-16  1.82713E+01  6.21804E-08  1.0E-07
  4.750E-02  1.71823E-07  5.11647E-16  1.82713E+01  6.56349E-08  1.0E-07
  5.000E-02  1.90386E-07  5.11645E-16  1.82712E+01  6.90895E-08  1.0E-07
  5.250E-02  2.09900E-07  5.11643E-16  1.82711E+01  7.25441E-08  1.0E-07
  5.500E-02  2.30367E-07  5.11641E-16  1.82710E+01  7.59987E-08  1.0E-07
  5.750E-02  2.51785E-07  5.11639E-16  1.82710E+01  7.94533E-08  1.0E-07
  6.000E-02  2.74156E-07  5.11636E-16  1.82709E+01  8.29080E-08  1.0E-07
  6.250E-02  2.97478E-07  5.11634E-16  1.82708E+01  8.63626E-08  1.0E-07
  6.500E-02  3.21752E-07  5.11631E-16  1.82707E+01  8.98173E-08  1.0E-07
  6.750E-02  3.46978E-07  5.11629E-16  1.82706E+01  9.32720E-08  1.0E-07
  7.000E-02  3.73156E-07  5.11626E-16  1.82705E+01  9.67267E-08  1.0E-07
  7.250E-02  4.00286E-07  5.11623E-16  1.82704E+01  1.00181E-07  1.0E-07
  7.500E-02  4.28368E-07  5.11620E-16  1.82703E+01  1.03636E-07  1.0E-07
  7.750E-02  4.57402E-07  5.11617E-16  1.82702E+01  1.07091E-07  1.0E-07
  8.000E-02  4.87388E-07  5.11614E-16  1.82701E+01  1.10546E-07  1.0E-07
  8.250E-02  5.18325E-07  5.11610E-16  1.82699E+01  1.14001E-07  1.0E-07
  8.500E-02  5.50215E-07  5.11607E-16  1.82698E+01  1.17456E-07  1.0E-07
  8.750E-02  5.83057E-07  5.11603E-16  1.82697E+01  1.20910E-07  1.0E-07
  9.000E-02  6.16850E-07  5.11600E-16  1.82696E+01  1.24365E-07  1.0E-07
  9.250E-02  6.51596E-07  5.11596E-16  1.82694E+01  1.27820E-07  1.0E-07
  9.500E-02  6.87293E-07  5.11592E-16  1.82693E+01  1.31275E-07  1.0E-07
  9.750E-02  7.23942E-07  5.11588E-16  1.82691E+01  1.34730E-07  1.0E-07
  1.000E-01  7.61543E-07  5.11584E-16  1.82690E+01  1.38185E-07  1.0E-07
  1.250E-01  1.18991E-06  5.11538E-16  1.82674E+01  1.72737E-07  1.0E-07
  1.500E-01  1.71347E-06  5.11482E-16  1.82654E+01  2.07293E-07  1.0E-07
  1.750E-01  2.33223E-06  5.11416E-16  1.82630E+01  2.41854E-07  1.0E-07
  2.000E-01  3.04617E-06  5.11339E-16  1.82603E+01  2.76420E-07  1.0E-07
  2.250E-01  3.85531E-06  5.11253E-16  1.82572E+01  3.10992E-07  1.0E-07
  2.500E-01  4.75964E-06  5.11156E-16  1.82537E+01  3.45572E-07  1.0E-07
  2.750E-01  5.75916E-06  5.11049E-16  1.82499E+01  3.80159E-07  1.0E-07
  3.000E-01  6.85388E-06  5.10932E-16  1.82457E+01  4.14754E-07  1.0E-07
  3.250E-01  8.04378E-06  5.10805E-16  1.82412E+01  4.49359E-07  1.0E-07
  3.500E-01  9.32888E-06  5.10667E-16  1.82363E+01  4.83974E-07  1.0E-07
  3.750E-01  1.07092E-05  5.10520E-16  1.82310E+01  5.18600E-07  1.0E-07
  4.000E-01  1.21846E-05  5.10362E-16  1.82254E+01  5.53237E-07  1.0E-07
  4.250E-01  1.37553E-05  5.10195E-16  1.82194E+01  5.87887E-07  1.0E-07
  4.500E-01  1.54212E-05  5.10017E-16  1.82130E+01  6.22550E-07  1.0E-07
  4.750E-01  1.71822E-05  5.09829E-16  1.82063E+01  6.57226E-07  1.0E-07
  5.000E-01  1.90385E-05  5.09631E-16  1.81993E+01  6.91918E-07  1.0E-07
  5.250E-01  2.09899E-05  5.09423E-16  1.81918E+01  7.26625E-07  1.0E-07
  5.500E-01  2.30365E-05  5.09205E-16  1.81840E+01  7.61348E-07  1.0E-07
  5.750E-01  2.51783E-05  5.08977E-16  1.81759E+01  7.96089E-07  1.0E-07
  6.000E-01  2.74153E-05  5.08739E-16  1.81674E+01  8.30847E-07  1.0E-07
  6.250E-01  2.97475E-05  5.08491E-16  1.81586E+01  8.65624E-07  1.0E-07
  6.500E-01  3.21749E-05  5.08233E-16  1.81493E+01  9.00420E-07  1.0E-07
  6.750E-01  3.46974E-05  5.07966E-16  1.81398E+01  9.35236E-07  1.0E-07
  7.000E-01  3.73152E-05  5.07688E-16  1.81299E+01  9.70073E-07  1.0E-07
  7.250E-01  4.00281E-05  5.07400E-16  1.81196E+01  1.00493E-06  1.0E-07
  7.500E-01  4.28362E-05  5.07103E-16  1.81090E+01  1.03981E-06  1.0E-07
  7.750E-01  4.57395E-05  5.06796E-16  1.80980E+01  1.07472E-06  1.0E-07
  8.000E-01  4.87380E-05  5.06479E-16  1.80867E+01  1.10965E-06  1.0E-07
  8.250E-01  5.18317E-05  5.06152E-16  1.80750E+01  1.14460E-06  1.0E-07
  8.500E-01  5.50205E-05  5.05815E-16  1.80630E+01  1.17958E-06  1.0E-07
  8.750E-01  5.83045E-05  5.05469E-16  1.80506E+01  1.21458E-06  1.0E-07
  9.000E-01  6.16838E-05  5.05113E-16  1.80379E+01  1.24961E-06  1.0E-07
  9.250E-01  6.51582E-05  5.04747E-16  1.80248E+01  1.28467E-06  1.0E-07
  9.500E-01  6.87277E-05  5.04372E-16  1.80114E+01  1.31976E-06  1.0E-07
  9.750E-01  7.23925E-05  5.03987E-16  1.79977E+01  1.35488E-06  1.0E-07
  1.000E+00  7.61524E-05  5.03592E-16  1.79836E+01  1.39003E-06  1.0E-07
  1.100E+00  9.21439E-05  5.01919E-16  1.79238E+01  1.53093E-06  1.0E-07
  1.200E+00  1.09658E-04  5.00095E-16  1.78587E+01  1.67238E-06  1.0E-07
  1.300E+00  1.28695E-04  4.98122E-16  1.77883E+01  1.81442E-06  1.0E-07
  1.400E+00  1.49255E-04  4.96004E-16  1.77126E+01  1.95711E-06  1.0E-07
  1.500E+00  1.71338E-04  4.93742E-16  1.76318E+01  2.10047E-06  1.0E-07
  1.600E+00  1.94942E-04  4.91340E-16  1.75461E+01  2.24458E-06  1.0E-07
  1.700E+00  2.20070E-04  4.88800E-16  1.74554E+01  2.38947E-06  1.0E-07
  1.800E+00  2.46720E-04  4.86126E-16  1.73599E+01  2.53519E-06  1.0E-07
  1.900E+00  2.74892E-04  4.83321E-16  1.72597E+01  2.68179E-06  1.0E-07
  2.000E+00  3.04586E-04  4.80388E-16  1.71550E+01  2.82932E-06  1.0E-07
  2.100E+00  3.35803E-04  4.77330E-16  1.70458E+01  2.97782E-06  1.0E-07
  2.200E+00  3.68542E-04  4.74153E-16  1.69323E+01  3.12734E-06  1.0E-07
  2.300E+00  4.02802E-04  4.70858E-16  1.68146E+01  3.27793E-06  1.0E-07
  2.400E+00  4.38585E-04  4.67450E-16  1.66929E+01  3.42963E-06  1.0E-07
  2.500E+00  4.75889E-04  4.63933E-16  1.65674E+01  3.58249E-06  1.0E-07
  2.600E+00  5.14715E-04  4.60311E-16  1.64380E+01  3.73655E-06  1.0E-07
  2.700E+00  5.55063E-04  4.56588E-16  1.63051E+01  3.89185E-06  1.0E-07
  2.800E+00  5.96931E-04  4.52769E-16  1.61687E+01  4.04845E-06  1.0E-07
  2.900E+00  6.40321E-04  4.48856E-16  1.60289E+01  4.20638E-06  1.0E-07
  3.000E+00  6.85233E-04  4.44855E-16  1.58861E+01  4.36569E-06  1.0E-07
  3.100E+00  7.31665E-04  4.40771E-16  1.57402E+01  4.52641E-06  1.0E-07
  3.200E+00  7.79618E-04  4.36606E-16  1.55915E+01  4.68860E-06  1.0E-07
  3.300E+00  8.29092E-04  4.32366E-16  1.54401E+01  4.85230E-06  1.0E-07
  3.400E+00  8.80086E-04  4.28055E-16  1.52861E+01  5.01753E-06  1.0E-07
  3.500E+00  9.32601E-04  4.23677E-16  1.51298E+01  5.18435E-06  1.0E-07
  3.600E+00  9.86636E-04  4.19237E-16  1.49712E+01  5.35279E-06  1.0E-07
  3.700E+00  1.04219E-03  4.14739E-16  1.48106E+01  5.52290E-06  1.0E-07
  3.800E+00  1.09927E-03  4.10188E-16  1.46481E+01  5.69470E-06  1.0E-07
  3.900E+00  1.15786E-03  4.05587E-16  1.44838E+01  5.86824E-06  1.0E-07
  4.000E+00  1.21797E-03  4.00941E-16  1.43179E+01  6.04355E-06  1.0E-07
  4.100E+00  1.27961E-03  3.96255E-16  1.41505E+01  6.22067E-06  1.0E-07
  4.200E+00  1.34276E-03  3.91531E-16  1.39818E+01  6.39963E-06  1.0E-07
  4.300E+00  1.40743E-03  3.86776E-16  1.38120E+01  6.58047E-06  1.0E-07
  4.400E+00  1.47362E-03  3.81991E-16  1.36412E+01  6.76321E-06  1.0E-07
  4.500E+00  1.54133E-03  3.77183E-16  1.34694E+01  6.94789E-06  1.0E-07
  4.600E+00  1.61056E-03  3.72354E-16  1.32970E+01  7.13454E-06  1.0E-07
  4.700E+00  1.68131E-03  3.67508E-16  1.31240E+01  7.32319E-06  1.0E-07
  4.800E+00  1.75357E-03  3.62650E-16  1.29505E+01  7.51386E-06  1.0E-07
  4.900E+00  1.82735E-03  3.57783E-16  1.27767E+01  7.70659E-06  1.0E-07
  5.000E+00  1.90265E-03  3.52910E-16  1.26026E+01  7.90140E-06  1.0E-07
  5.100E+00  1.97947E-03  3.48035E-16  1.24285E+01  8.09830E-06  1.0E-07
  5.200E+00  2.05780E-03  3.43161E-16  1.22545E+01  8.29734E-06  1.0E-07
  5.300E+00  2.13765E-03  3.38292E-16  1.20806E+01  8.49853E-06  1.0E-07
  5.400E+00  2.21902E-03  3.33431E-16  1.19070E+01  8.70188E-06  1.0E-07
  5.500E+00  2.30190E-03  3.28581E-16  1.17338E+01  8.90742E-06  1.0E-07
  5.600E+00  2.38630E-03  3.23745E-16  1.15611E+01  9.11517E-06  1.0E-07
  5.700E+00  2.47222E-03  3.18926E-16  1.13890E+01  9.32514E-06  1.0E-07
  5.800E+00  2.55965E-03  3.14126E-16  1.12177E+01  9.53735E-06  1.0E-07
  5.900E+00  2.64859E-03  3.09349E-16  1.10471E+01  9.75181E-06  1.0E-07
  6.000E+00  2.73905E-03  3.04597E-16  1.08774E+01  9.96854E-06  1.0E-07
  6.100E+00  2.83103E-03  2.99872E-16  1.07086E+01  1.01875E-05  1.0E-07
  6.200E+00  2.92452E-03  2.95177E-16  1.05410E+01  1.04088E-05  1.0E-07
  6.300E+00  3.01952E-03  2.90513E-16  1.03744E+01  1.06324E-05  1.0E-07
  6.400E+00  3.11604E-03  2.85884E-16  1.02091E+01  1.08583E-05  1.0E-07
  6.500E+00  3.21407E-03  2.81290E-16  1.00451E+01  1.10864E-05  1.0E-07
  6.600E+00  3.31362E-03  2.76734E-16  9.88236E+00  1.13169E-05  1.0E-07
  6.700E+00  3.41468E-03  2.72218E-16  9.72108E+00  1.15497E-05  1.0E-07
  6.800E+00  3.51725E-03  2.67743E-16  9.56128E+00  1.17848E-05  1.0E-07
  6.900E+00  3.62133E-03  2.63311E-16  9.40300E+00  1.20222E-05  1.0E-07
  7.000E+00  3.72692E-03  2.58923E-16  9.24630E+00  1.22619E-05  1.0E-07
  7.100E+00  3.83403E-03  2.54580E-16  9.09122E+00  1.25039E-05  1.0E-07
  7.200E+00  3.94265E-03  2.50284E-16  8.93782E+00  1.27481E-05  1.0E-07
  7.300E+00  4.05278E-03  2.46036E-16  8.78612E+00  1.29947E-05  1.0E-07
  7.400E+00  4.16442E-03  2.41838E-16  8.63618E+00  1.32435E-05  1.0E-07
  7.500E+00  4.27757E-03  2.37689E-16  8.48801E+00  1.34946E-05  1.0E-07
  7.600E+00  4.39223E-03  2.33590E-16  8.34166E+00  1.37479E-05  1.0E-07
  7.700E+00  4.50840E-03  2.29543E-16  8.19715E+00  1.40035E-05  1.0E-07
  7.800E+00  4.62608E-03  2.25549E-16  8.05450E+00  1.42613E-05  1.0E-07
  7.900E+00  4.74527E-03  2.21607E-16  7.91373E+00  1.45212E-05  1.0E-07
  8.000E+00  4.86597E-03  2.17718E-16  7.77487E+00  1.47834E-05  1.0E-07
  8.100E+00  4.98817E-03  2.13884E-16  7.63792E+00  1.50477E-05  1.0E-07
  8.200E+00  5.11188E-03  2.10103E-16  7.50291E+00  1.53141E-05  1.0E-07
  8.300E+00  5.23711E-03  2.06376E-16  7.36983E+00  1.55826E-05  1.0E-07
  8.400E+00  5.36383E-03  2.02704E-16  7.23871E+00  1.58532E-05  1.0E-07
  8.500E+00  5.49207E-03  1.99087E-16  7.10953E+00  1.61259E-05  1.0E-07
  8.600E+00  5.62181E-03  1.95525E-16  6.98232E+00  1.64006E-05  1.0E-07
  8.700E+00  5.75306E-03  1.92017E-16  6.85706E+00  1.66773E-05  1.0E-07
  8.800E+00  5.88581E-03  1.88564E-16  6.73375E+00  1.69559E-05  1.0E-07
  8.900E+00  6.02007E-03  1.85166E-16  6.61240E+00  1.72365E-05  1.0E-07
  9.000E+00  6.15583E-03  1.81822E-16  6.49300E+00  1.75189E-05  1.0E-07
  9.100E+00  6.29310E-03  1.78533E-16  6.37554E+00  1.78033E-05  1.0E-07
  9.200E+00  6.43187E-03  1.75298E-16  6.26000E+00  1.80894E-05  1.0E-07
  9.300E+00  6.57214E-03  1.72117E-16  6.14640E+00  1.83773E-05  1.0E-07
  9.400E+00  6.71392E-03  1.68989E-16  6.03470E+00  1.86669E-05  1.0E-07
  9.500E+00  6.85720E-03  1.65914E-16  5.92490E+00  1.89583E-05  1.0E-07
  9.600E+00  7.00198E-03  1.62892E-16  5.81698E+00  1.92513E-05  1.0E-07
  9.700E+00  7.14827E-03  1.59922E-16  5.71093E+00  1.95459E-05  1.0E-07
  9.800E+00  7.29605E-03  1.57005E-16  5.60674E+00  1.98421E-05  1.0E-07
  9.900E+00  7.44534E-03  1.54138E-16  5.50438E+00  2.01398E-05  1.0E-07
  1.000E+01  7.59612E-03  1.51323E-16  5.40383E+00  2.04389E-05  1.0E-07
  1.025E+01  7.97965E-03  1.44503E-16  5.16030E+00  2.11929E-05  1.0E-07
  1.050E+01  8.37255E-03  1.37989E-16  4.92767E+00  2.19549E-05  1.0E-07
  1.075E+01  8.77480E-03  1.31771E-16  4.70563E+00  2.27241E-05  1.0E-07
  1.100E+01  9.18641E-03  1.25839E-16  4.49380E+00  2.34995E-05  1.0E-07
  1.125E+01  9.60736E-03  1.20183E-16  4.29182E+00  2.42803E-05  1.0E-07
  1.150E+01  1.00376E-02  1.14792E-16  4.09931E+00  2.50654E-05  1.0E-07
  1.175E+01  1.04773E-02  1.09656E-16  3.91590E+00  2.58537E-05  1.0E-07
  1.200E+01  1.09262E-02  1.04764E-16  3.74120E+00  2.66442E-05  1.0E-07
  1.225E+01  1.13844E-02  1.00106E-16  3.57486E+00  2.74357E-05  1.0E-07
  1.250E+01  1.18520E-02  9.56714E-17  3.41649E+00  2.82270E-05  1.0E-07
  1.275E+01  1.23288E-02  9.14501E-17  3.26574E+00  2.90169E-05  1.0E-07
  1.300E+01  1.28150E-02  8.74324E-17  3.12227E+00  2.98042E-05  1.0E-07
  1.325E+01  1.33104E-02  8.36089E-17  2.98573E+00  3.05874E-05  1.0E-07
  1.350E+01  1.38150E-02  7.99704E-17  2.85579E+00  3.13652E-05  1.0E-07
  1.375E+01  1.43290E-02  7.65081E-17  2.73216E+00  3.21363E-05  1.0E-07
  1.400E+01  1.48521E-02  7.32136E-17  2.61451E+00  3.28992E-05  1.0E-07
  1.425E+01  1.53845E-02  7.00788E-17  2.50256E+00  3.36524E-05  1.0E-07
  1.450E+01  1.59262E-02  6.70958E-17  2.39603E+00  3.43945E-05  1.0E-07
  1.475E+01  1.64770E-02  6.42572E-17  2.29467E+00  3.51239E-05  1.0E-07
