 #
 # Subroutine ELSEPA. Elastic scattering of electrons and positrons
 #                    by neutral atoms and positive ions
 #
 # Projectile: electron
 # Kinetic energy = 1.00000E+01 eV = 3.67493E-01 a.u.
 #
 #  ***  WARNING: Energy is too low.
 #                The reliability of the results is questionable.
 #
 # Element:  C,  Z =   6,  atomic weight = 1.20107E+01 g/mol
 #
 # Nuclear model: Fermi distribution
 #                Average radius = 2.45042E-13 cm
 #                Skin thickness = 5.46000E-14 cm
 #
 # Number of electrons =  6
 #
 # Electron density: analytical DHFS model
 #                   A1 =  1.53676D-01 ,   ALPHA1 = 8.04043D+00
 #                   A2 =  8.46324D-01 ,   ALPHA2 = 1.49129D+00
 #                   A3 =  0.00000D+00 ,   ALPHA3 = 1.00000D+00
 #                   Volume integral = 6.00000E+00
 #
 # Muffin-tin model: Rmt = 3.22000E-08 cm
 #
 # Furness-McCarthy exchange potential
 #
 # Total elastic cross section = 1.66023E-15 cm**2 = 5.92880E+01 a0**2
 # 1st transport cross section = 1.05851E-15 cm**2 = 3.78001E+01 a0**2
 # 2nd transport cross section = 1.15805E-15 cm**2 = 4.13548E+01 a0**2
 #
 #
 # Differential cross section:                       MU=(1-COS(THETA))/2
 #
 #  THETA        MU          DCS          DCS        Sherman      error
 #  (deg)                 (cm**2/sr)   (a0**2/sr)    function
 #----------------------------------------------------------------------
  0.000E+00  0.00000E+00  4.58467E-16  1.63721E+01  0.00000E+00  1.0E-07
  1.000E-04  7.61557E-13  4.58467E-16  1.63721E+01  6.74159E-10  1.0E-07
  1.250E-04  1.18994E-12  4.58467E-16  1.63721E+01  8.42698E-10  1.0E-07
  1.500E-04  1.71346E-12  4.58467E-16  1.63721E+01  1.01124E-09  1.0E-07
  1.750E-04  2.33225E-12  4.58467E-16  1.63721E+01  1.17978E-09  1.0E-07
  2.000E-04  3.04617E-12  4.58467E-16  1.63721E+01  1.34832E-09  1.0E-07
  2.250E-04  3.85530E-12  4.58467E-16  1.63721E+01  1.51686E-09  1.0E-07
  2.500E-04  4.75964E-12  4.58467E-16  1.63721E+01  1.68540E-09  1.0E-07
  2.750E-04  5.75917E-12  4.58467E-16  1.63721E+01  1.85394E-09  1.0E-07
  3.000E-04  6.85391E-12  4.58467E-16  1.63721E+01  2.02248E-09  1.0E-07
  3.250E-04  8.04379E-12  4.58467E-16  1.63721E+01  2.19102E-09  1.0E-07
  3.500E-04  9.32893E-12  4.58467E-16  1.63721E+01  2.35956E-09  1.0E-07
  3.750E-04  1.07092E-11  4.58467E-16  1.63721E+01  2.52810E-09  1.0E-07
  4.000E-04  1.21847E-11  4.58467E-16  1.63721E+01  2.69663E-09  1.0E-07
  4.250E-04  1.37554E-11  4.58467E-16  1.63721E+01  2.86517E-09  1.0E-07
  4.500E-04  1.54213E-11  4.58467E-16  1.63721E+01  3.03371E-09  1.0E-07
  4.750E-04  1.71823E-11  4.58467E-16  1.63721E+01  3.20225E-09  1.0E-07
  5.000E-04  1.90386E-11  4.58467E-16  1.63721E+01  3.37079E-09  1.0E-07
  5.250E-04  2.09900E-11  4.58467E-16  1.63721E+01  3.53933E-09  1.0E-07
  5.500E-04  2.30367E-11  4.58467E-16  1.63721E+01  3.70787E-09  1.0E-07
  5.750E-04  2.51785E-11  4.58467E-16  1.63721E+01  3.87641E-09  1.0E-07
  6.000E-04  2.74156E-11  4.58467E-16  1.63721E+01  4.04495E-09  1.0E-07
  6.250E-04  2.97478E-11  4.58467E-16  1.63721E+01  4.21349E-09  1.0E-07
  6.500E-04  3.21752E-11  4.58467E-16  1.63721E+01  4.38203E-09  1.0E-07
  6.750E-04  3.46979E-11  4.58467E-16  1.63721E+01  4.55057E-09  1.0E-07
  7.000E-04  3.73157E-11  4.58467E-16  1.63721E+01  4.71911E-09  1.0E-07
  7.250E-04  4.00286E-11  4.58467E-16  1.63721E+01  4.88765E-09  1.0E-07
  7.500E-04  4.28368E-11  4.58467E-16  1.63721E+01  5.05619E-09  1.0E-07
  7.750E-04  4.57402E-11  4.58467E-16  1.63721E+01  5.22473E-09  1.0E-07
  8.000E-04  4.87388E-11  4.58467E-16  1.63721E+01  5.39327E-09  1.0E-07
  8.250E-04  5.18325E-11  4.58467E-16  1.63721E+01  5.56181E-09  1.0E-07
  8.500E-04  5.50215E-11  4.58467E-16  1.63721E+01  5.73035E-09  1.0E-07
  8.750E-04  5.83057E-11  4.58467E-16  1.63721E+01  5.89889E-09  1.0E-07
  9.000E-04  6.16850E-11  4.58467E-16  1.63721E+01  6.06743E-09  1.0E-07
  9.250E-04  6.51595E-11  4.58467E-16  1.63721E+01  6.23597E-09  1.0E-07
  9.500E-04  6.87293E-11  4.58467E-16  1.63721E+01  6.40451E-09  1.0E-07
  9.750E-04  7.23943E-11  4.58467E-16  1.63721E+01  6.57305E-09  1.0E-07
  1.000E-03  7.61544E-11  4.58467E-16  1.63721E+01  6.74159E-09  1.0E-07
  1.250E-03  1.18991E-10  4.58467E-16  1.63721E+01  8.42698E-09  1.0E-07
  1.500E-03  1.71347E-10  4.58467E-16  1.63721E+01  1.01124E-08  1.0E-07
  1.750E-03  2.33223E-10  4.58467E-16  1.63721E+01  1.17978E-08  1.0E-07
  2.000E-03  3.04617E-10  4.58467E-16  1.63721E+01  1.34832E-08  1.0E-07
  2.250E-03  3.85531E-10  4.58467E-16  1.63721E+01  1.51686E-08  1.0E-07
  2.500E-03  4.75965E-10  4.58467E-16  1.63721E+01  1.68540E-08  1.0E-07
  2.750E-03  5.75917E-10  4.58467E-16  1.63721E+01  1.85394E-08  1.0E-07
  3.000E-03  6.85389E-10  4.58467E-16  1.63721E+01  2.02248E-08  1.0E-07
  3.250E-03  8.04380E-10  4.58467E-16  1.63721E+01  2.19102E-08  1.0E-07
  3.500E-03  9.32891E-10  4.58467E-16  1.63721E+01  2.35956E-08  1.0E-07
  3.750E-03  1.07092E-09  4.58467E-16  1.63721E+01  2.52810E-08  1.0E-07
  4.000E-03  1.21847E-09  4.58467E-16  1.63721E+01  2.69663E-08  1.0E-07
  4.250E-03  1.37554E-09  4.58467E-16  1.63721E+01  2.86517E-08  1.0E-07
  4.500E-03  1.54213E-09  4.58467E-16  1.63721E+01  3.03371E-08  1.0E-07
  4.750E-03  1.71823E-09  4.58467E-16  1.63721E+01  3.20225E-08  1.0E-07
  5.000E-03  1.90386E-09  4.58467E-16  1.63721E+01  3.37079E-08  1.0E-07
  5.250E-03  2.09900E-09  4.58467E-16  1.63721E+01  3.53933E-08  1.0E-07
  5.500E-03  2.30367E-09  4.58467E-16  1.63721E+01  3.70787E-08  1.0E-07
  5.750E-03  2.51785E-09  4.58467E-16  1.63721E+01  3.87641E-08  1.0E-07
  6.000E-03  2.74156E-09  4.58467E-16  1.63721E+01  4.04495E-08  1.0E-07
  6.250E-03  2.97478E-09  4.58467E-16  1.63721E+01  4.21349E-08  1.0E-07
  6.500E-03  3.21752E-09  4.58467E-16  1.63721E+01  4.38203E-08  1.0E-07
  6.750E-03  3.46978E-09  4.58467E-16  1.63721E+01  4.55057E-08  1.0E-07
  7.000E-03  3.73156E-09  4.58467E-16  1.63721E+01  4.71911E-08  1.0E-07
  7.250E-03  4.00286E-09  4.58467E-16  1.63721E+01  4.88765E-08  1.0E-07
  7.500E-03  4.28368E-09  4.58467E-16  1.63721E+01  5.05619E-08  1.0E-07
  7.750E-03  4.57402E-09  4.58467E-16  1.63721E+01  5.22473E-08  1.0E-07
  8.000E-03  4.87388E-09  4.58467E-16  1.63721E+01  5.39327E-08  1.0E-07
  8.250E-03  5.18326E-09  4.58467E-16  1.63721E+01  5.56181E-08  1.0E-07
  8.500E-03  5.50215E-09  4.58467E-16  1.63721E+01  5.73035E-08  1.0E-07
  8.750E-03  5.83057E-09  4.58467E-16  1.63721E+01  5.89889E-08  1.0E-07
  9.000E-03  6.16850E-09  4.58467E-16  1.63721E+01  6.06743E-08  1.0E-07
  9.250E-03  6.51596E-09  4.58467E-16  1.63721E+01  6.23597E-08  1.0E-07
  9.500E-03  6.87293E-09  4.58467E-16  1.63721E+01  6.40451E-08  1.0E-07
  9.750E-03  7.23942E-09  4.58467E-16  1.63721E+01  6.57305E-08  1.0E-07
  1.000E-02  7.61544E-09  4.58467E-16  1.63721E+01  6.74159E-08  1.0E-07
  1.250E-02  1.18991E-08  4.58467E-16  1.63721E+01  8.42698E-08  1.0E-07
  1.500E-02  1.71347E-08  4.58467E-16  1.63721E+01  1.01124E-07  1.0E-07
  1.750E-02  2.33223E-08  4.58467E-16  1.63721E+01  1.17978E-07  1.0E-07
  2.000E-02  3.04617E-08  4.58467E-16  1.63721E+01  1.34832E-07  1.0E-07
  2.250E-02  3.85531E-08  4.58467E-16  1.63721E+01  1.51686E-07  1.0E-07
  2.500E-02  4.75965E-08  4.58467E-16  1.63721E+01  1.68540E-07  1.0E-07
  2.750E-02  5.75917E-08  4.58467E-16  1.63721E+01  1.85394E-07  1.0E-07
  3.000E-02  6.85389E-08  4.58467E-16  1.63721E+01  2.02248E-07  1.0E-07
  3.250E-02  8.04380E-08  4.58467E-16  1.63721E+01  2.19102E-07  1.0E-07
  3.500E-02  9.32891E-08  4.58467E-16  1.63721E+01  2.35956E-07  1.0E-07
  3.750E-02  1.07092E-07  4.58467E-16  1.63721E+01  2.52810E-07  1.0E-07
  4.000E-02  1.21847E-07  4.58467E-16  1.63721E+01  2.69664E-07  1.0E-07
  4.250E-02  1.37554E-07  4.58466E-16  1.63721E+01  2.86518E-07  1.0E-07
  4.500E-02  1.54213E-07  4.58466E-16  1.63721E+01  3.03372E-07  1.0E-07
  4.750E-02  1.71823E-07  4.58466E-16  1.63721E+01  3.20226E-07  1.0E-07
  5.000E-02  1.90386E-07  4.58466E-16  1.63721E+01  3.37080E-07  1.0E-07
  5.250E-02  2.09900E-07  4.58466E-16  1.63721E+01  3.53934E-07  1.0E-07
  5.500E-02  2.30367E-07  4.58466E-16  1.63721E+01  3.70788E-07  1.0E-07
  5.750E-02  2.51785E-07  4.58466E-16  1.63721E+01  3.87642E-07  1.0E-07
  6.000E-02  2.74156E-07  4.58466E-16  1.63721E+01  4.04496E-07  1.0E-07
  6.250E-02  2.97478E-07  4.58466E-16  1.63721E+01  4.21350E-07  1.0E-07
  6.500E-02  3.21752E-07  4.58466E-16  1.63721E+01  4.38204E-07  1.0E-07
  6.750E-02  3.46978E-07  4.58466E-16  1.63721E+01  4.55058E-07  1.0E-07
  7.000E-02  3.73156E-07  4.58466E-16  1.63721E+01  4.71912E-07  1.0E-07
  7.250E-02  4.00286E-07  4.58466E-16  1.63721E+01  4.88766E-07  1.0E-07
  7.500E-02  4.28368E-07  4.58466E-16  1.63721E+01  5.05620E-07  1.0E-07
  7.750E-02  4.57402E-07  4.58466E-16  1.63721E+01  5.22474E-07  1.0E-07
  8.000E-02  4.87388E-07  4.58466E-16  1.63721E+01  5.39328E-07  1.0E-07
  8.250E-02  5.18325E-07  4.58466E-16  1.63721E+01  5.56182E-07  1.0E-07
  8.500E-02  5.50215E-07  4.58466E-16  1.63721E+01  5.73036E-07  1.0E-07
  8.750E-02  5.83057E-07  4.58466E-16  1.63721E+01  5.89890E-07  1.0E-07
  9.000E-02  6.16850E-07  4.58466E-16  1.63721E+01  6.06744E-07  1.0E-07
  9.250E-02  6.51596E-07  4.58466E-16  1.63721E+01  6.23598E-07  1.0E-07
  9.500E-02  6.87293E-07  4.58466E-16  1.63721E+01  6.40452E-07  1.0E-07
  9.750E-02  7.23942E-07  4.58466E-16  1.63721E+01  6.57306E-07  1.0E-07
  1.000E-01  7.61543E-07  4.58466E-16  1.63721E+01  6.74160E-07  1.0E-07
  1.250E-01  1.18991E-06  4.58465E-16  1.63721E+01  8.42702E-07  1.0E-07
  1.500E-01  1.71347E-06  4.58464E-16  1.63721E+01  1.01124E-06  1.0E-07
  1.750E-01  2.33223E-06  4.58463E-16  1.63720E+01  1.17979E-06  1.0E-07
  2.000E-01  3.04617E-06  4.58462E-16  1.63720E+01  1.34833E-06  1.0E-07
  2.250E-01  3.85531E-06  4.58461E-16  1.63719E+01  1.51688E-06  1.0E-07
  2.500E-01  4.75964E-06  4.58460E-16  1.63719E+01  1.68542E-06  1.0E-07
  2.750E-01  5.75916E-06  4.58458E-16  1.63718E+01  1.85397E-06  1.0E-07
  3.000E-01  6.85388E-06  4.58457E-16  1.63718E+01  2.02252E-06  1.0E-07
  3.250E-01  8.04378E-06  4.58455E-16  1.63717E+01  2.19107E-06  1.0E-07
  3.500E-01  9.32888E-06  4.58453E-16  1.63717E+01  2.35963E-06  1.0E-07
  3.750E-01  1.07092E-05  4.58451E-16  1.63716E+01  2.52818E-06  1.0E-07
  4.000E-01  1.21846E-05  4.58449E-16  1.63715E+01  2.69674E-06  1.0E-07
  4.250E-01  1.37553E-05  4.58447E-16  1.63714E+01  2.86530E-06  1.0E-07
  4.500E-01  1.54212E-05  4.58445E-16  1.63714E+01  3.03387E-06  1.0E-07
  4.750E-01  1.71822E-05  4.58442E-16  1.63713E+01  3.20243E-06  1.0E-07
  5.000E-01  1.90385E-05  4.58439E-16  1.63712E+01  3.37100E-06  1.0E-07
  5.250E-01  2.09899E-05  4.58437E-16  1.63711E+01  3.53958E-06  1.0E-07
  5.500E-01  2.30365E-05  4.58434E-16  1.63710E+01  3.70815E-06  1.0E-07
  5.750E-01  2.51783E-05  4.58431E-16  1.63709E+01  3.87673E-06  1.0E-07
  6.000E-01  2.74153E-05  4.58428E-16  1.63707E+01  4.04531E-06  1.0E-07
  6.250E-01  2.97475E-05  4.58424E-16  1.63706E+01  4.21390E-06  1.0E-07
  6.500E-01  3.21749E-05  4.58421E-16  1.63705E+01  4.38249E-06  1.0E-07
  6.750E-01  3.46974E-05  4.58417E-16  1.63704E+01  4.55109E-06  1.0E-07
  7.000E-01  3.73152E-05  4.58413E-16  1.63702E+01  4.71969E-06  1.0E-07
  7.250E-01  4.00281E-05  4.58410E-16  1.63701E+01  4.88829E-06  1.0E-07
  7.500E-01  4.28362E-05  4.58406E-16  1.63700E+01  5.05690E-06  1.0E-07
  7.750E-01  4.57395E-05  4.58401E-16  1.63698E+01  5.22551E-06  1.0E-07
  8.000E-01  4.87380E-05  4.58397E-16  1.63697E+01  5.39413E-06  1.0E-07
  8.250E-01  5.18317E-05  4.58393E-16  1.63695E+01  5.56275E-06  1.0E-07
  8.500E-01  5.50205E-05  4.58388E-16  1.63693E+01  5.73138E-06  1.0E-07
  8.750E-01  5.83045E-05  4.58383E-16  1.63692E+01  5.90001E-06  1.0E-07
  9.000E-01  6.16838E-05  4.58379E-16  1.63690E+01  6.06865E-06  1.0E-07
  9.250E-01  6.51582E-05  4.58374E-16  1.63688E+01  6.23729E-06  1.0E-07
  9.500E-01  6.87277E-05  4.58369E-16  1.63686E+01  6.40594E-06  1.0E-07
  9.750E-01  7.23925E-05  4.58363E-16  1.63685E+01  6.57460E-06  1.0E-07
  1.000E+00  7.61524E-05  4.58358E-16  1.63683E+01  6.74326E-06  1.0E-07
  1.100E+00  9.21439E-05  4.58335E-16  1.63674E+01  7.41797E-06  1.0E-07
  1.200E+00  1.09658E-04  4.58310E-16  1.63666E+01  8.09280E-06  1.0E-07
  1.300E+00  1.28695E-04  4.58283E-16  1.63656E+01  8.76774E-06  1.0E-07
  1.400E+00  1.49255E-04  4.58254E-16  1.63645E+01  9.44282E-06  1.0E-07
  1.500E+00  1.71338E-04  4.58222E-16  1.63634E+01  1.01180E-05  1.0E-07
  1.600E+00  1.94942E-04  4.58188E-16  1.63622E+01  1.07934E-05  1.0E-07
  1.700E+00  2.20070E-04  4.58152E-16  1.63609E+01  1.14689E-05  1.0E-07
  1.800E+00  2.46720E-04  4.58114E-16  1.63596E+01  1.21446E-05  1.0E-07
  1.900E+00  2.74892E-04  4.58074E-16  1.63581E+01  1.28205E-05  1.0E-07
  2.000E+00  3.04586E-04  4.58032E-16  1.63566E+01  1.34966E-05  1.0E-07
  2.100E+00  3.35803E-04  4.57987E-16  1.63550E+01  1.41728E-05  1.0E-07
  2.200E+00  3.68542E-04  4.57941E-16  1.63534E+01  1.48493E-05  1.0E-07
  2.300E+00  4.02802E-04  4.57892E-16  1.63516E+01  1.55260E-05  1.0E-07
  2.400E+00  4.38585E-04  4.57841E-16  1.63498E+01  1.62029E-05  1.0E-07
  2.500E+00  4.75889E-04  4.57788E-16  1.63479E+01  1.68801E-05  1.0E-07
  2.600E+00  5.14715E-04  4.57732E-16  1.63459E+01  1.75575E-05  1.0E-07
  2.700E+00  5.55063E-04  4.57675E-16  1.63439E+01  1.82352E-05  1.0E-07
  2.800E+00  5.96931E-04  4.57615E-16  1.63417E+01  1.89132E-05  1.0E-07
  2.900E+00  6.40321E-04  4.57553E-16  1.63395E+01  1.95914E-05  1.0E-07
  3.000E+00  6.85233E-04  4.57489E-16  1.63372E+01  2.02699E-05  1.0E-07
  3.100E+00  7.31665E-04  4.57423E-16  1.63349E+01  2.09488E-05  1.0E-07
  3.200E+00  7.79618E-04  4.57355E-16  1.63324E+01  2.16279E-05  1.0E-07
  3.300E+00  8.29092E-04  4.57284E-16  1.63299E+01  2.23074E-05  1.0E-07
  3.400E+00  8.80086E-04  4.57212E-16  1.63273E+01  2.29872E-05  1.0E-07
  3.500E+00  9.32601E-04  4.57137E-16  1.63246E+01  2.36673E-05  1.0E-07
  3.600E+00  9.86636E-04  4.57060E-16  1.63219E+01  2.43478E-05  1.0E-07
  3.700E+00  1.04219E-03  4.56981E-16  1.63191E+01  2.50286E-05  1.0E-07
  3.800E+00  1.09927E-03  4.56899E-16  1.63162E+01  2.57098E-05  1.0E-07
  3.900E+00  1.15786E-03  4.56816E-16  1.63132E+01  2.63914E-05  1.0E-07
  4.000E+00  1.21797E-03  4.56731E-16  1.63101E+01  2.70734E-05  1.0E-07
  4.100E+00  1.27961E-03  4.56643E-16  1.63070E+01  2.77558E-05  1.0E-07
  4.200E+00  1.34276E-03  4.56553E-16  1.63038E+01  2.84386E-05  1.0E-07
  4.300E+00  1.40743E-03  4.56461E-16  1.63005E+01  2.91218E-05  1.0E-07
  4.400E+00  1.47362E-03  4.56367E-16  1.62972E+01  2.98055E-05  1.0E-07
  4.500E+00  1.54133E-03  4.56271E-16  1.62937E+01  3.04895E-05  1.0E-07
  4.600E+00  1.61056E-03  4.56172E-16  1.62902E+01  3.11741E-05  1.0E-07
  4.700E+00  1.68131E-03  4.56072E-16  1.62866E+01  3.18591E-05  1.0E-07
  4.800E+00  1.75357E-03  4.55969E-16  1.62830E+01  3.25445E-05  1.0E-07
  4.900E+00  1.82735E-03  4.55864E-16  1.62792E+01  3.32305E-05  1.0E-07
  5.000E+00  1.90265E-03  4.55758E-16  1.62754E+01  3.39169E-05  1.0E-07
  5.100E+00  1.97947E-03  4.55648E-16  1.62715E+01  3.46039E-05  1.0E-07
  5.200E+00  2.05780E-03  4.55537E-16  1.62675E+01  3.52913E-05  1.0E-07
  5.300E+00  2.13765E-03  4.55424E-16  1.62635E+01  3.59793E-05  1.0E-07
  5.400E+00  2.21902E-03  4.55309E-16  1.62594E+01  3.66678E-05  1.0E-07
  5.500E+00  2.30190E-03  4.55191E-16  1.62552E+01  3.73568E-05  1.0E-07
  5.600E+00  2.38630E-03  4.55071E-16  1.62509E+01  3.80464E-05  1.0E-07
  5.700E+00  2.47222E-03  4.54950E-16  1.62465E+01  3.87365E-05  1.0E-07
  5.800E+00  2.55965E-03  4.54826E-16  1.62421E+01  3.94273E-05  1.0E-07
  5.900E+00  2.64859E-03  4.54700E-16  1.62376E+01  4.01185E-05  1.0E-07
  6.000E+00  2.73905E-03  4.54572E-16  1.62331E+01  4.08104E-05  1.0E-07
  6.100E+00  2.83103E-03  4.54442E-16  1.62284E+01  4.15029E-05  1.0E-07
  6.200E+00  2.92452E-03  4.54309E-16  1.62237E+01  4.21960E-05  1.0E-07
  6.300E+00  3.01952E-03  4.54175E-16  1.62189E+01  4.28897E-05  1.0E-07
  6.400E+00  3.11604E-03  4.54038E-16  1.62140E+01  4.35840E-05  1.0E-07
  6.500E+00  3.21407E-03  4.53900E-16  1.62091E+01  4.42790E-05  1.0E-07
  6.600E+00  3.31362E-03  4.53759E-16  1.62040E+01  4.49746E-05  1.0E-07
  6.700E+00  3.41468E-03  4.53616E-16  1.61989E+01  4.56709E-05  1.0E-07
  6.800E+00  3.51725E-03  4.53471E-16  1.61938E+01  4.63678E-05  1.0E-07
  6.900E+00  3.62133E-03  4.53324E-16  1.61885E+01  4.70655E-05  1.0E-07
  7.000E+00  3.72692E-03  4.53175E-16  1.61832E+01  4.77638E-05  1.0E-07
  7.100E+00  3.83403E-03  4.53024E-16  1.61778E+01  4.84628E-05  1.0E-07
  7.200E+00  3.94265E-03  4.52871E-16  1.61723E+01  4.91625E-05  1.0E-07
  7.300E+00  4.05278E-03  4.52715E-16  1.61668E+01  4.98629E-05  1.0E-07
  7.400E+00  4.16442E-03  4.52558E-16  1.61611E+01  5.05641E-05  1.0E-07
  7.500E+00  4.27757E-03  4.52399E-16  1.61554E+01  5.12659E-05  1.0E-07
  7.600E+00  4.39223E-03  4.52237E-16  1.61497E+01  5.19686E-05  1.0E-07
  7.700E+00  4.50840E-03  4.52073E-16  1.61438E+01  5.26720E-05  1.0E-07
  7.800E+00  4.62608E-03  4.51908E-16  1.61379E+01  5.33761E-05  1.0E-07
  7.900E+00  4.74527E-03  4.51740E-16  1.61319E+01  5.40810E-05  1.0E-07
  8.000E+00  4.86597E-03  4.51570E-16  1.61259E+01  5.47867E-05  1.0E-07
  8.100E+00  4.98817E-03  4.51398E-16  1.61197E+01  5.54932E-05  1.0E-07
  8.200E+00  5.11188E-03  4.51225E-16  1.61135E+01  5.62006E-05  1.0E-07
  8.300E+00  5.23711E-03  4.51049E-16  1.61072E+01  5.69087E-05  1.0E-07
  8.400E+00  5.36383E-03  4.50871E-16  1.61009E+01  5.76176E-05  1.0E-07
  8.500E+00  5.49207E-03  4.50691E-16  1.60945E+01  5.83274E-05  1.0E-07
  8.600E+00  5.62181E-03  4.50508E-16  1.60879E+01  5.90380E-05  1.0E-07
  8.700E+00  5.75306E-03  4.50324E-16  1.60814E+01  5.97495E-05  1.0E-07
  8.800E+00  5.88581E-03  4.50138E-16  1.60747E+01  6.04618E-05  1.0E-07
  8.900E+00  6.02007E-03  4.49950E-16  1.60680E+01  6.11750E-05  1.0E-07
  9.000E+00  6.15583E-03  4.49760E-16  1.60612E+01  6.18891E-05  1.0E-07
  9.100E+00  6.29310E-03  4.49568E-16  1.60543E+01  6.26040E-05  1.0E-07
  9.200E+00  6.43187E-03  4.49373E-16  1.60474E+01  6.33199E-05  1.0E-07
  9.300E+00  6.57214E-03  4.49177E-16  1.60404E+01  6.40367E-05  1.0E-07
  9.400E+00  6.71392E-03  4.48979E-16  1.60333E+01  6.47544E-05  1.0E-07
  9.500E+00  6.85720E-03  4.48778E-16  1.60262E+01  6.54730E-05  1.0E-07
  9.600E+00  7.00198E-03  4.48576E-16  1.60189E+01  6.61926E-05  1.0E-07
  9.700E+00  7.14827E-03  4.48372E-16  1.60116E+01  6.69131E-05  1.0E-07
  9.800E+00  7.29605E-03  4.48165E-16  1.60043E+01  6.76345E-05  1.0E-07
  9.900E+00  7.44534E-03  4.47957E-16  1.59968E+01  6.83570E-05  1.0E-07
  1.000E+01  7.59612E-03  4.47747E-16  1.59893E+01  6.90804E-05  1.0E-07
  1.025E+01  7.97965E-03  4.47212E-16  1.59702E+01  7.08932E-05  1.0E-07
  1.050E+01  8.37255E-03  4.46665E-16  1.59507E+01  7.27124E-05  1.0E-07
  1.075E+01  8.77480E-03  4.46106E-16  1.59307E+01  7.45380E-05  1.0E-07
  1.100E+01  9.18641E-03  4.45534E-16  1.59103E+01  7.63702E-05  1.0E-07
  1.125E+01  9.60736E-03  4.44950E-16  1.58895E+01  7.82091E-05  1.0E-07
  1.150E+01  1.00376E-02  4.44354E-16  1.58682E+01  8.00549E-05  1.0E-07
  1.175E+01  1.04773E-02  4.43746E-16  1.58465E+01  8.19078E-05  1.0E-07
  1.200E+01  1.09262E-02  4.43126E-16  1.58243E+01  8.37678E-05  1.0E-07
  1.225E+01  1.13844E-02  4.42494E-16  1.58017E+01  8.56352E-05  1.0E-07
  1.250E+01  1.18520E-02  4.41850E-16  1.57787E+01  8.75100E-05  1.0E-07
  1.275E+01  1.23288E-02  4.41194E-16  1.57553E+01  8.93925E-05  1.0E-07
  1.300E+01  1.28150E-02  4.40526E-16  1.57315E+01  9.12827E-05  1.0E-07
  1.325E+01  1.33104E-02  4.39847E-16  1.57072E+01  9.31807E-05  1.0E-07
  1.350E+01  1.38150E-02  4.39156E-16  1.56825E+01  9.50869E-05  1.0E-07
  1.375E+01  1.43290E-02  4.38453E-16  1.56574E+01  9.70012E-05  1.0E-07
  1.400E+01  1.48521E-02  4.37739E-16  1.56319E+01  9.89238E-05  1.0E-07
  1.425E+01  1.53845E-02  4.37013E-16  1.56060E+01  1.00855E-04  1.0E-07
  1.450E+01  1.59262E-02  4.36276E-16  1.55797E+01  1.02795E-04  1.0E-07
