 #
 # Subroutine ELSEPA. Elastic scattering of electrons and positrons
 #                    by neutral atoms and positive ions
 #
 # Projectile: electron
 # Kinetic energy = 1.50000E+04 eV = 5.51240E+02 a.u.
 #
 # Element: Si,  Z =  14,  atomic weight = 2.80855E+01 g/mol
 #
 # Nuclear model: Fermi distribution
 #                Average radius = 3.25245E-13 cm
 #                Skin thickness = 5.46000E-14 cm
 #
 # Number of electrons = 14
 #
 # Electron density: analytical DHFS model
 #                   A1 =  5.15971D-01 ,   ALPHA1 = 5.84918D+00
 #                   A2 =  4.84029D-01 ,   ALPHA2 = 1.17314D+00
 #                   A3 =  0.00000D+00 ,   ALPHA3 = 1.00000D+00
 #                   Volume integral = 1.40000E+01
 #
 # Muffin-tin model: Rmt = 1.68000E-08 cm
 #
 # Furness-McCarthy exchange potential
 #
 # Total elastic cross section = 1.23116E-17 cm**2 = 4.39657E-01 a0**2
 # 1st transport cross section = 1.48702E-19 cm**2 = 5.31025E-03 a0**2
 # 2nd transport cross section = 3.56395E-19 cm**2 = 1.27271E-02 a0**2
 #
 #
 # Differential cross section:                       MU=(1-COS(THETA))/2
 #
 #  THETA        MU          DCS          DCS        Sherman      error
 #  (deg)                 (cm**2/sr)   (a0**2/sr)    function
 #----------------------------------------------------------------------
  0.000E+00  0.00000E+00  1.55904E-15  5.56743E+01  0.00000E+00  1.0E-07
  1.000E-04  7.61557E-13  1.55904E-15  5.56743E+01  2.30436E-10  1.0E-07
  1.250E-04  1.18994E-12  1.55904E-15  5.56743E+01  2.88045E-10  1.0E-07
  1.500E-04  1.71346E-12  1.55904E-15  5.56743E+01  3.45654E-10  1.0E-07
  1.750E-04  2.33225E-12  1.55904E-15  5.56743E+01  4.03263E-10  1.0E-07
  2.000E-04  3.04617E-12  1.55904E-15  5.56743E+01  4.60872E-10  1.0E-07
  2.250E-04  3.85530E-12  1.55904E-15  5.56743E+01  5.18481E-10  1.0E-07
  2.500E-04  4.75964E-12  1.55904E-15  5.56743E+01  5.76090E-10  1.0E-07
  2.750E-04  5.75917E-12  1.55904E-15  5.56743E+01  6.33699E-10  1.0E-07
  3.000E-04  6.85391E-12  1.55904E-15  5.56743E+01  6.91308E-10  1.0E-07
  3.250E-04  8.04379E-12  1.55904E-15  5.56743E+01  7.48917E-10  1.0E-07
  3.500E-04  9.32893E-12  1.55904E-15  5.56743E+01  8.06526E-10  1.0E-07
  3.750E-04  1.07092E-11  1.55904E-15  5.56743E+01  8.64135E-10  1.0E-07
  4.000E-04  1.21847E-11  1.55904E-15  5.56743E+01  9.21744E-10  1.0E-07
  4.250E-04  1.37554E-11  1.55904E-15  5.56743E+01  9.79353E-10  1.0E-07
  4.500E-04  1.54213E-11  1.55904E-15  5.56743E+01  1.03696E-09  1.0E-07
  4.750E-04  1.71823E-11  1.55904E-15  5.56743E+01  1.09457E-09  1.0E-07
  5.000E-04  1.90386E-11  1.55904E-15  5.56743E+01  1.15218E-09  1.0E-07
  5.250E-04  2.09900E-11  1.55904E-15  5.56743E+01  1.20979E-09  1.0E-07
  5.500E-04  2.30367E-11  1.55904E-15  5.56743E+01  1.26740E-09  1.0E-07
  5.750E-04  2.51785E-11  1.55904E-15  5.56743E+01  1.32501E-09  1.0E-07
  6.000E-04  2.74156E-11  1.55904E-15  5.56743E+01  1.38262E-09  1.0E-07
  6.250E-04  2.97478E-11  1.55904E-15  5.56743E+01  1.44022E-09  1.0E-07
  6.500E-04  3.21752E-11  1.55904E-15  5.56743E+01  1.49783E-09  1.0E-07
  6.750E-04  3.46979E-11  1.55904E-15  5.56743E+01  1.55544E-09  1.0E-07
  7.000E-04  3.73157E-11  1.55904E-15  5.56743E+01  1.61305E-09  1.0E-07
  7.250E-04  4.00286E-11  1.55904E-15  5.56743E+01  1.67066E-09  1.0E-07
  7.500E-04  4.28368E-11  1.55904E-15  5.56743E+01  1.72827E-09  1.0E-07
  7.750E-04  4.57402E-11  1.55904E-15  5.56743E+01  1.78588E-09  1.0E-07
  8.000E-04  4.87388E-11  1.55904E-15  5.56743E+01  1.84349E-09  1.0E-07
  8.250E-04  5.18325E-11  1.55904E-15  5.56743E+01  1.90110E-09  1.0E-07
  8.500E-04  5.50215E-11  1.55904E-15  5.56743E+01  1.95871E-09  1.0E-07
  8.750E-04  5.83057E-11  1.55904E-15  5.56743E+01  2.01631E-09  1.0E-07
  9.000E-04  6.16850E-11  1.55904E-15  5.56743E+01  2.07392E-09  1.0E-07
  9.250E-04  6.51595E-11  1.55904E-15  5.56743E+01  2.13153E-09  1.0E-07
  9.500E-04  6.87293E-11  1.55904E-15  5.56743E+01  2.18914E-09  1.0E-07
  9.750E-04  7.23943E-11  1.55904E-15  5.56743E+01  2.24675E-09  1.0E-07
  1.000E-03  7.61544E-11  1.55904E-15  5.56743E+01  2.30436E-09  1.0E-07
  1.250E-03  1.18991E-10  1.55904E-15  5.56743E+01  2.88045E-09  1.0E-07
  1.500E-03  1.71347E-10  1.55904E-15  5.56743E+01  3.45654E-09  1.0E-07
  1.750E-03  2.33223E-10  1.55904E-15  5.56743E+01  4.03263E-09  1.0E-07
  2.000E-03  3.04617E-10  1.55904E-15  5.56742E+01  4.60872E-09  1.0E-07
  2.250E-03  3.85531E-10  1.55904E-15  5.56742E+01  5.18481E-09  1.0E-07
  2.500E-03  4.75965E-10  1.55904E-15  5.56742E+01  5.76090E-09  1.0E-07
  2.750E-03  5.75917E-10  1.55904E-15  5.56742E+01  6.33699E-09  1.0E-07
  3.000E-03  6.85389E-10  1.55904E-15  5.56742E+01  6.91308E-09  1.0E-07
  3.250E-03  8.04380E-10  1.55904E-15  5.56742E+01  7.48918E-09  1.0E-07
  3.500E-03  9.32891E-10  1.55904E-15  5.56742E+01  8.06527E-09  1.0E-07
  3.750E-03  1.07092E-09  1.55903E-15  5.56741E+01  8.64136E-09  1.0E-07
  4.000E-03  1.21847E-09  1.55903E-15  5.56741E+01  9.21745E-09  1.0E-07
  4.250E-03  1.37554E-09  1.55903E-15  5.56741E+01  9.79354E-09  1.0E-07
  4.500E-03  1.54213E-09  1.55903E-15  5.56741E+01  1.03696E-08  1.0E-07
  4.750E-03  1.71823E-09  1.55903E-15  5.56740E+01  1.09457E-08  1.0E-07
  5.000E-03  1.90386E-09  1.55903E-15  5.56740E+01  1.15218E-08  1.0E-07
  5.250E-03  2.09900E-09  1.55903E-15  5.56740E+01  1.20979E-08  1.0E-07
  5.500E-03  2.30367E-09  1.55903E-15  5.56740E+01  1.26740E-08  1.0E-07
  5.750E-03  2.51785E-09  1.55903E-15  5.56739E+01  1.32501E-08  1.0E-07
  6.000E-03  2.74156E-09  1.55903E-15  5.56739E+01  1.38262E-08  1.0E-07
  6.250E-03  2.97478E-09  1.55903E-15  5.56739E+01  1.44023E-08  1.0E-07
  6.500E-03  3.21752E-09  1.55903E-15  5.56738E+01  1.49784E-08  1.0E-07
  6.750E-03  3.46978E-09  1.55903E-15  5.56738E+01  1.55545E-08  1.0E-07
  7.000E-03  3.73156E-09  1.55902E-15  5.56738E+01  1.61306E-08  1.0E-07
  7.250E-03  4.00286E-09  1.55902E-15  5.56737E+01  1.67067E-08  1.0E-07
  7.500E-03  4.28368E-09  1.55902E-15  5.56737E+01  1.72828E-08  1.0E-07
  7.750E-03  4.57402E-09  1.55902E-15  5.56736E+01  1.78589E-08  1.0E-07
  8.000E-03  4.87388E-09  1.55902E-15  5.56736E+01  1.84350E-08  1.0E-07
  8.250E-03  5.18326E-09  1.55902E-15  5.56736E+01  1.90111E-08  1.0E-07
  8.500E-03  5.50215E-09  1.55902E-15  5.56735E+01  1.95872E-08  1.0E-07
  8.750E-03  5.83057E-09  1.55902E-15  5.56735E+01  2.01633E-08  1.0E-07
  9.000E-03  6.16850E-09  1.55901E-15  5.56734E+01  2.07394E-08  1.0E-07
  9.250E-03  6.51596E-09  1.55901E-15  5.56734E+01  2.13155E-08  1.0E-07
  9.500E-03  6.87293E-09  1.55901E-15  5.56733E+01  2.18916E-08  1.0E-07
  9.750E-03  7.23942E-09  1.55901E-15  5.56733E+01  2.24677E-08  1.0E-07
  1.000E-02  7.61544E-09  1.55901E-15  5.56732E+01  2.30438E-08  1.0E-07
  1.250E-02  1.18991E-08  1.55899E-15  5.56726E+01  2.88049E-08  1.0E-07
  1.500E-02  1.71347E-08  1.55897E-15  5.56719E+01  3.45660E-08  1.0E-07
  1.750E-02  2.33223E-08  1.55895E-15  5.56710E+01  4.03273E-08  1.0E-07
  2.000E-02  3.04617E-08  1.55892E-15  5.56700E+01  4.60887E-08  1.0E-07
  2.250E-02  3.85531E-08  1.55889E-15  5.56689E+01  5.18502E-08  1.0E-07
  2.500E-02  4.75965E-08  1.55885E-15  5.56676E+01  5.76119E-08  1.0E-07
  2.750E-02  5.75917E-08  1.55881E-15  5.56662E+01  6.33737E-08  1.0E-07
  3.000E-02  6.85389E-08  1.55877E-15  5.56647E+01  6.91358E-08  1.0E-07
  3.250E-02  8.04380E-08  1.55872E-15  5.56630E+01  7.48980E-08  1.0E-07
  3.500E-02  9.32891E-08  1.55867E-15  5.56612E+01  8.06605E-08  1.0E-07
  3.750E-02  1.07092E-07  1.55862E-15  5.56592E+01  8.64232E-08  1.0E-07
  4.000E-02  1.21847E-07  1.55856E-15  5.56572E+01  9.21862E-08  1.0E-07
  4.250E-02  1.37554E-07  1.55850E-15  5.56550E+01  9.79494E-08  1.0E-07
  4.500E-02  1.54213E-07  1.55843E-15  5.56526E+01  1.03713E-07  1.0E-07
  4.750E-02  1.71823E-07  1.55836E-15  5.56502E+01  1.09477E-07  1.0E-07
  5.000E-02  1.90386E-07  1.55829E-15  5.56476E+01  1.15241E-07  1.0E-07
  5.250E-02  2.09900E-07  1.55821E-15  5.56448E+01  1.21006E-07  1.0E-07
  5.500E-02  2.30367E-07  1.55813E-15  5.56419E+01  1.26770E-07  1.0E-07
  5.750E-02  2.51785E-07  1.55805E-15  5.56389E+01  1.32536E-07  1.0E-07
  6.000E-02  2.74156E-07  1.55796E-15  5.56358E+01  1.38301E-07  1.0E-07
  6.250E-02  2.97478E-07  1.55787E-15  5.56325E+01  1.44068E-07  1.0E-07
  6.500E-02  3.21752E-07  1.55777E-15  5.56291E+01  1.49834E-07  1.0E-07
  6.750E-02  3.46978E-07  1.55767E-15  5.56256E+01  1.55601E-07  1.0E-07
  7.000E-02  3.73156E-07  1.55757E-15  5.56219E+01  1.61368E-07  1.0E-07
  7.250E-02  4.00286E-07  1.55747E-15  5.56181E+01  1.67136E-07  1.0E-07
  7.500E-02  4.28368E-07  1.55735E-15  5.56142E+01  1.72905E-07  1.0E-07
  7.750E-02  4.57402E-07  1.55724E-15  5.56101E+01  1.78674E-07  1.0E-07
  8.000E-02  4.87388E-07  1.55712E-15  5.56059E+01  1.84443E-07  1.0E-07
  8.250E-02  5.18325E-07  1.55700E-15  5.56015E+01  1.90213E-07  1.0E-07
  8.500E-02  5.50215E-07  1.55688E-15  5.55971E+01  1.95984E-07  1.0E-07
  8.750E-02  5.83057E-07  1.55675E-15  5.55925E+01  2.01755E-07  1.0E-07
  9.000E-02  6.16850E-07  1.55661E-15  5.55877E+01  2.07527E-07  1.0E-07
  9.250E-02  6.51596E-07  1.55648E-15  5.55828E+01  2.13299E-07  1.0E-07
  9.500E-02  6.87293E-07  1.55634E-15  5.55778E+01  2.19072E-07  1.0E-07
  9.750E-02  7.23942E-07  1.55619E-15  5.55727E+01  2.24846E-07  1.0E-07
  1.000E-01  7.61543E-07  1.55605E-15  5.55674E+01  2.30620E-07  1.0E-07
  1.250E-01  1.18991E-06  1.55437E-15  5.55074E+01  2.88405E-07  1.0E-07
  1.500E-01  1.71347E-06  1.55232E-15  5.54342E+01  3.46277E-07  1.0E-07
  1.750E-01  2.33223E-06  1.54990E-15  5.53478E+01  4.04252E-07  1.0E-07
  2.000E-01  3.04617E-06  1.54711E-15  5.52482E+01  4.62348E-07  1.0E-07
  2.250E-01  3.85531E-06  1.54396E-15  5.51357E+01  5.20584E-07  1.0E-07
  2.500E-01  4.75964E-06  1.54044E-15  5.50102E+01  5.78975E-07  1.0E-07
  2.750E-01  5.75916E-06  1.53657E-15  5.48719E+01  6.37540E-07  1.0E-07
  3.000E-01  6.85388E-06  1.53234E-15  5.47208E+01  6.96296E-07  1.0E-07
  3.250E-01  8.04378E-06  1.52775E-15  5.45571E+01  7.55261E-07  1.0E-07
  3.500E-01  9.32888E-06  1.52282E-15  5.43810E+01  8.14452E-07  1.0E-07
  3.750E-01  1.07092E-05  1.51754E-15  5.41925E+01  8.73887E-07  1.0E-07
  4.000E-01  1.21846E-05  1.51192E-15  5.39918E+01  9.33584E-07  1.0E-07
  4.250E-01  1.37553E-05  1.50597E-15  5.37791E+01  9.93560E-07  1.0E-07
  4.500E-01  1.54212E-05  1.49968E-15  5.35545E+01  1.05383E-06  1.0E-07
  4.750E-01  1.71822E-05  1.49306E-15  5.33182E+01  1.11442E-06  1.0E-07
  5.000E-01  1.90385E-05  1.48612E-15  5.30704E+01  1.17535E-06  1.0E-07
  5.250E-01  2.09899E-05  1.47887E-15  5.28112E+01  1.23662E-06  1.0E-07
  5.500E-01  2.30365E-05  1.47130E-15  5.25410E+01  1.29826E-06  1.0E-07
  5.750E-01  2.51783E-05  1.46342E-15  5.22598E+01  1.36030E-06  1.0E-07
  6.000E-01  2.74153E-05  1.45525E-15  5.19680E+01  1.42273E-06  1.0E-07
  6.250E-01  2.97475E-05  1.44679E-15  5.16656E+01  1.48560E-06  1.0E-07
  6.500E-01  3.21749E-05  1.43803E-15  5.13531E+01  1.54890E-06  1.0E-07
  6.750E-01  3.46974E-05  1.42900E-15  5.10305E+01  1.61267E-06  1.0E-07
  7.000E-01  3.73152E-05  1.41969E-15  5.06981E+01  1.67692E-06  1.0E-07
  7.250E-01  4.00281E-05  1.41012E-15  5.03562E+01  1.74167E-06  1.0E-07
  7.500E-01  4.28362E-05  1.40028E-15  5.00050E+01  1.80693E-06  1.0E-07
  7.750E-01  4.57395E-05  1.39020E-15  4.96449E+01  1.87274E-06  1.0E-07
  8.000E-01  4.87380E-05  1.37987E-15  4.92759E+01  1.93909E-06  1.0E-07
  8.250E-01  5.18317E-05  1.36930E-15  4.88985E+01  2.00603E-06  1.0E-07
  8.500E-01  5.50205E-05  1.35850E-15  4.85129E+01  2.07356E-06  1.0E-07
  8.750E-01  5.83045E-05  1.34748E-15  4.81193E+01  2.14170E-06  1.0E-07
  9.000E-01  6.16838E-05  1.33624E-15  4.77181E+01  2.21048E-06  1.0E-07
  9.250E-01  6.51582E-05  1.32480E-15  4.73095E+01  2.27992E-06  1.0E-07
  9.500E-01  6.87277E-05  1.31316E-15  4.68939E+01  2.35002E-06  1.0E-07
  9.750E-01  7.23925E-05  1.30133E-15  4.64714E+01  2.42082E-06  1.0E-07
  1.000E+00  7.61524E-05  1.28932E-15  4.60424E+01  2.49233E-06  1.0E-07
  1.100E+00  9.21439E-05  1.23961E-15  4.42673E+01  2.78592E-06  1.0E-07
  1.200E+00  1.09658E-04  1.18765E-15  4.24117E+01  3.09254E-06  1.0E-07
  1.300E+00  1.28695E-04  1.13396E-15  4.04946E+01  3.41352E-06  1.0E-07
  1.400E+00  1.49255E-04  1.07908E-15  3.85346E+01  3.75022E-06  1.0E-07
  1.500E+00  1.71338E-04  1.02350E-15  3.65499E+01  4.10399E-06  1.0E-07
  1.600E+00  1.94942E-04  9.67716E-16  3.45578E+01  4.47619E-06  1.0E-07
  1.700E+00  2.20070E-04  9.12175E-16  3.25744E+01  4.86819E-06  1.0E-07
  1.800E+00  2.46720E-04  8.57298E-16  3.06147E+01  5.28134E-06  1.0E-07
  1.900E+00  2.74892E-04  8.03461E-16  2.86921E+01  5.71693E-06  1.0E-07
  2.000E+00  3.04586E-04  7.51000E-16  2.68187E+01  6.17621E-06  1.0E-07
  2.100E+00  3.35803E-04  7.00203E-16  2.50047E+01  6.66037E-06  1.0E-07
  2.200E+00  3.68542E-04  6.51312E-16  2.32588E+01  7.17045E-06  1.0E-07
  2.300E+00  4.02802E-04  6.04526E-16  2.15880E+01  7.70740E-06  1.0E-07
  2.400E+00  4.38585E-04  5.59994E-16  1.99978E+01  8.27199E-06  1.0E-07
  2.500E+00  4.75889E-04  5.17827E-16  1.84920E+01  8.86478E-06  1.0E-07
  2.600E+00  5.14715E-04  4.78093E-16  1.70730E+01  9.48613E-06  1.0E-07
  2.700E+00  5.55063E-04  4.40825E-16  1.57421E+01  1.01361E-05  1.0E-07
  2.800E+00  5.96931E-04  4.06020E-16  1.44992E+01  1.08146E-05  1.0E-07
  2.900E+00  6.40321E-04  3.73649E-16  1.33433E+01  1.15211E-05  1.0E-07
  3.000E+00  6.85233E-04  3.43657E-16  1.22722E+01  1.22548E-05  1.0E-07
  3.100E+00  7.31665E-04  3.15967E-16  1.12834E+01  1.30146E-05  1.0E-07
  3.200E+00  7.79618E-04  2.90485E-16  1.03734E+01  1.37992E-05  1.0E-07
  3.300E+00  8.29092E-04  2.67107E-16  9.53856E+00  1.46069E-05  1.0E-07
  3.400E+00  8.80086E-04  2.45715E-16  8.77465E+00  1.54358E-05  1.0E-07
  3.500E+00  9.32601E-04  2.26189E-16  8.07734E+00  1.62840E-05  1.0E-07
  3.600E+00  9.86636E-04  2.08401E-16  7.44213E+00  1.71493E-05  1.0E-07
  3.700E+00  1.04219E-03  1.92226E-16  6.86451E+00  1.80297E-05  1.0E-07
  3.800E+00  1.09927E-03  1.77538E-16  6.34000E+00  1.89229E-05  1.0E-07
  3.900E+00  1.15786E-03  1.64215E-16  5.86424E+00  1.98271E-05  1.0E-07
  4.000E+00  1.21797E-03  1.52140E-16  5.43300E+00  2.07406E-05  1.0E-07
  4.100E+00  1.27961E-03  1.41198E-16  5.04227E+00  2.16618E-05  1.0E-07
  4.200E+00  1.34276E-03  1.31284E-16  4.68825E+00  2.25896E-05  1.0E-07
  4.300E+00  1.40743E-03  1.22299E-16  4.36738E+00  2.35232E-05  1.0E-07
  4.400E+00  1.47362E-03  1.14149E-16  4.07634E+00  2.44620E-05  1.0E-07
  4.500E+00  1.54133E-03  1.06749E-16  3.81208E+00  2.54058E-05  1.0E-07
  4.600E+00  1.61056E-03  1.00020E-16  3.57180E+00  2.63547E-05  1.0E-07
  4.700E+00  1.68131E-03  9.38917E-17  3.35293E+00  2.73089E-05  1.0E-07
  4.800E+00  1.75357E-03  8.82977E-17  3.15317E+00  2.82688E-05  1.0E-07
  4.900E+00  1.82735E-03  8.31801E-17  2.97042E+00  2.92348E-05  1.0E-07
  5.000E+00  1.90265E-03  7.84863E-17  2.80280E+00  3.02074E-05  1.0E-07
  5.100E+00  1.97947E-03  7.41692E-17  2.64863E+00  3.11870E-05  1.0E-07
  5.200E+00  2.05780E-03  7.01872E-17  2.50643E+00  3.21737E-05  1.0E-07
  5.300E+00  2.13765E-03  6.65032E-17  2.37487E+00  3.31678E-05  1.0E-07
  5.400E+00  2.21902E-03  6.30847E-17  2.25280E+00  3.41689E-05  1.0E-07
  5.500E+00  2.30190E-03  5.99032E-17  2.13918E+00  3.51767E-05  1.0E-07
  5.600E+00  2.38630E-03  5.69337E-17  2.03314E+00  3.61906E-05  1.0E-07
  5.700E+00  2.47222E-03  5.41545E-17  1.93389E+00  3.72096E-05  1.0E-07
  5.800E+00  2.55965E-03  5.15469E-17  1.84077E+00  3.82326E-05  1.0E-07
  5.900E+00  2.64859E-03  4.90947E-17  1.75320E+00  3.92581E-05  1.0E-07
  6.000E+00  2.73905E-03  4.67839E-17  1.67069E+00  4.02847E-05  1.0E-07
  6.100E+00  2.83103E-03  4.46027E-17  1.59279E+00  4.13104E-05  1.0E-07
  6.200E+00  2.92452E-03  4.25407E-17  1.51916E+00  4.23335E-05  1.0E-07
  6.300E+00  3.01952E-03  4.05893E-17  1.44947E+00  4.33520E-05  1.0E-07
  6.400E+00  3.11604E-03  3.87408E-17  1.38346E+00  4.43639E-05  1.0E-07
  6.500E+00  3.21407E-03  3.69888E-17  1.32089E+00  4.53673E-05  1.0E-07
  6.600E+00  3.31362E-03  3.53276E-17  1.26157E+00  4.63603E-05  1.0E-07
  6.700E+00  3.41468E-03  3.37523E-17  1.20532E+00  4.73412E-05  1.0E-07
  6.800E+00  3.51725E-03  3.22583E-17  1.15197E+00  4.83087E-05  1.0E-07
  6.900E+00  3.62133E-03  3.08418E-17  1.10138E+00  4.92614E-05  1.0E-07
  7.000E+00  3.72692E-03  2.94990E-17  1.05343E+00  5.01985E-05  1.0E-07
  7.100E+00  3.83403E-03  2.82265E-17  1.00799E+00  5.11193E-05  1.0E-07
  7.200E+00  3.94265E-03  2.70211E-17  9.64939E-01  5.20237E-05  1.0E-07
  7.300E+00  4.05278E-03  2.58795E-17  9.24174E-01  5.29118E-05  1.0E-07
  7.400E+00  4.16442E-03  2.47988E-17  8.85583E-01  5.37841E-05  1.0E-07
  7.500E+00  4.27757E-03  2.37761E-17  8.49060E-01  5.46416E-05  1.0E-07
  7.600E+00  4.39223E-03  2.28083E-17  8.14500E-01  5.54852E-05  1.0E-07
  7.700E+00  4.50840E-03  2.18927E-17  7.81803E-01  5.63163E-05  1.0E-07
  7.800E+00  4.62608E-03  2.10264E-17  7.50866E-01  5.71365E-05  1.0E-07
  7.900E+00  4.74527E-03  2.02066E-17  7.21590E-01  5.79473E-05  1.0E-07
  8.000E+00  4.86597E-03  1.94306E-17  6.93878E-01  5.87504E-05  1.0E-07
  8.100E+00  4.98817E-03  1.86957E-17  6.67635E-01  5.95471E-05  1.0E-07
  8.200E+00  5.11188E-03  1.79994E-17  6.42769E-01  6.03387E-05  1.0E-07
  8.300E+00  5.23711E-03  1.73391E-17  6.19190E-01  6.11262E-05  1.0E-07
  8.400E+00  5.36383E-03  1.67125E-17  5.96814E-01  6.19104E-05  1.0E-07
  8.500E+00  5.49207E-03  1.61173E-17  5.75558E-01  6.26914E-05  1.0E-07
  8.600E+00  5.62181E-03  1.55512E-17  5.55344E-01  6.34690E-05  1.0E-07
  8.700E+00  5.75306E-03  1.50123E-17  5.36101E-01  6.42427E-05  1.0E-07
  8.800E+00  5.88581E-03  1.44987E-17  5.17758E-01  6.50112E-05  1.0E-07
  8.900E+00  6.02007E-03  1.40085E-17  5.00252E-01  6.57731E-05  1.0E-07
  9.000E+00  6.15583E-03  1.35401E-17  4.83525E-01  6.65263E-05  1.0E-07
  9.100E+00  6.29310E-03  1.30920E-17  4.67522E-01  6.72684E-05  1.0E-07
  9.200E+00  6.43187E-03  1.26627E-17  4.52194E-01  6.79968E-05  1.0E-07
  9.300E+00  6.57214E-03  1.22511E-17  4.37496E-01  6.87085E-05  1.0E-07
  9.400E+00  6.71392E-03  1.18560E-17  4.23387E-01  6.94005E-05  1.0E-07
  9.500E+00  6.85720E-03  1.14765E-17  4.09832E-01  7.00696E-05  1.0E-07
  9.600E+00  7.00198E-03  1.11115E-17  3.96797E-01  7.07125E-05  1.0E-07
  9.700E+00  7.14827E-03  1.07602E-17  3.84255E-01  7.13263E-05  1.0E-07
  9.800E+00  7.29605E-03  1.04221E-17  3.72180E-01  7.19082E-05  1.0E-07
  9.900E+00  7.44534E-03  1.00964E-17  3.60549E-01  7.24554E-05  1.0E-07
  1.000E+01  7.59612E-03  9.78259E-18  3.49343E-01  7.29659E-05  1.0E-07
  1.025E+01  7.97965E-03  9.04693E-18  3.23072E-01  7.40704E-05  1.0E-07
  1.050E+01  8.37255E-03  8.37609E-18  2.99116E-01  7.49202E-05  1.0E-07
  1.075E+01  8.77480E-03  7.76481E-18  2.77286E-01  7.55209E-05  1.0E-07
  1.100E+01  9.18641E-03  7.20844E-18  2.57418E-01  7.58965E-05  1.0E-07
  1.125E+01  9.60736E-03  6.70248E-18  2.39350E-01  7.60831E-05  1.0E-07
  1.150E+01  1.00376E-02  6.24244E-18  2.22922E-01  7.61196E-05  1.0E-07
  1.175E+01  1.04773E-02  5.82378E-18  2.07971E-01  7.60372E-05  1.0E-07
  1.200E+01  1.09262E-02  5.44201E-18  1.94338E-01  7.58503E-05  1.0E-07
  1.225E+01  1.13844E-02  5.09283E-18  1.81868E-01  7.55507E-05  1.0E-07
  1.250E+01  1.18520E-02  4.77229E-18  1.70422E-01  7.51067E-05  1.0E-07
  1.275E+01  1.23288E-02  4.47694E-18  1.59875E-01  7.44682E-05  1.0E-07
  1.300E+01  1.28150E-02  4.20384E-18  1.50122E-01  7.35748E-05  1.0E-07
  1.325E+01  1.33104E-02  3.95061E-18  1.41079E-01  7.23668E-05  1.0E-07
  1.350E+01  1.38150E-02  3.71537E-18  1.32678E-01  7.07964E-05  1.0E-07
  1.375E+01  1.43290E-02  3.49663E-18  1.24867E-01  6.88363E-05  1.0E-07
  1.400E+01  1.48521E-02  3.29320E-18  1.17602E-01  6.64841E-05  1.0E-07
  1.425E+01  1.53845E-02  3.10409E-18  1.10849E-01  6.37624E-05  1.0E-07
  1.450E+01  1.59262E-02  2.92837E-18  1.04574E-01  6.07128E-05  1.0E-07
  1.475E+01  1.64770E-02  2.76517E-18  9.87460E-02  5.73861E-05  1.0E-07
