 #
 # Subroutine ELSEPA. Elastic scattering of electrons and positrons
 #                    by neutral atoms and positive ions
 #
 # Projectile: electron
 # Kinetic energy = 1.10000E+04 eV = 4.04243E+02 a.u.
 #
 # Element: Si,  Z =  14,  atomic weight = 2.80855E+01 g/mol
 #
 # Nuclear model: Fermi distribution
 #                Average radius = 3.25245E-13 cm
 #                Skin thickness = 5.46000E-14 cm
 #
 # Number of electrons = 14
 #
 # Electron density: analytical DHFS model
 #                   A1 =  5.15971D-01 ,   ALPHA1 = 5.84918D+00
 #                   A2 =  4.84029D-01 ,   ALPHA2 = 1.17314D+00
 #                   A3 =  0.00000D+00 ,   ALPHA3 = 1.00000D+00
 #                   Volume integral = 1.40000E+01
 #
 # Muffin-tin model: Rmt = 1.68000E-08 cm
 #
 # Furness-McCarthy exchange potential
 #
 # Total elastic cross section = 1.62573E-17 cm**2 = 5.80560E-01 a0**2
 # 1st transport cross section = 2.56882E-19 cm**2 = 9.17341E-03 a0**2
 # 2nd transport cross section = 6.03382E-19 cm**2 = 2.15472E-02 a0**2
 #
 #
 # Differential cross section:                       MU=(1-COS(THETA))/2
 #
 #  THETA        MU          DCS          DCS        Sherman      error
 #  (deg)                 (cm**2/sr)   (a0**2/sr)    function
 #----------------------------------------------------------------------
  0.000E+00  0.00000E+00  1.51255E-15  5.40142E+01  0.00000E+00  1.0E-07
  1.000E-04  7.61557E-13  1.51255E-15  5.40142E+01  2.61850E-10  1.0E-07
  1.250E-04  1.18994E-12  1.51255E-15  5.40142E+01  3.27313E-10  1.0E-07
  1.500E-04  1.71346E-12  1.51255E-15  5.40142E+01  3.92776E-10  1.0E-07
  1.750E-04  2.33225E-12  1.51255E-15  5.40142E+01  4.58238E-10  1.0E-07
  2.000E-04  3.04617E-12  1.51255E-15  5.40142E+01  5.23701E-10  1.0E-07
  2.250E-04  3.85530E-12  1.51255E-15  5.40142E+01  5.89164E-10  1.0E-07
  2.500E-04  4.75964E-12  1.51255E-15  5.40142E+01  6.54626E-10  1.0E-07
  2.750E-04  5.75917E-12  1.51255E-15  5.40142E+01  7.20089E-10  1.0E-07
  3.000E-04  6.85391E-12  1.51255E-15  5.40142E+01  7.85551E-10  1.0E-07
  3.250E-04  8.04379E-12  1.51255E-15  5.40142E+01  8.51014E-10  1.0E-07
  3.500E-04  9.32893E-12  1.51255E-15  5.40142E+01  9.16477E-10  1.0E-07
  3.750E-04  1.07092E-11  1.51255E-15  5.40142E+01  9.81939E-10  1.0E-07
  4.000E-04  1.21847E-11  1.51255E-15  5.40142E+01  1.04740E-09  1.0E-07
  4.250E-04  1.37554E-11  1.51255E-15  5.40142E+01  1.11286E-09  1.0E-07
  4.500E-04  1.54213E-11  1.51255E-15  5.40142E+01  1.17833E-09  1.0E-07
  4.750E-04  1.71823E-11  1.51255E-15  5.40142E+01  1.24379E-09  1.0E-07
  5.000E-04  1.90386E-11  1.51255E-15  5.40142E+01  1.30925E-09  1.0E-07
  5.250E-04  2.09900E-11  1.51255E-15  5.40142E+01  1.37471E-09  1.0E-07
  5.500E-04  2.30367E-11  1.51255E-15  5.40142E+01  1.44018E-09  1.0E-07
  5.750E-04  2.51785E-11  1.51255E-15  5.40142E+01  1.50564E-09  1.0E-07
  6.000E-04  2.74156E-11  1.51255E-15  5.40142E+01  1.57110E-09  1.0E-07
  6.250E-04  2.97478E-11  1.51255E-15  5.40142E+01  1.63657E-09  1.0E-07
  6.500E-04  3.21752E-11  1.51255E-15  5.40142E+01  1.70203E-09  1.0E-07
  6.750E-04  3.46979E-11  1.51255E-15  5.40142E+01  1.76749E-09  1.0E-07
  7.000E-04  3.73157E-11  1.51255E-15  5.40142E+01  1.83295E-09  1.0E-07
  7.250E-04  4.00286E-11  1.51255E-15  5.40142E+01  1.89842E-09  1.0E-07
  7.500E-04  4.28368E-11  1.51255E-15  5.40142E+01  1.96388E-09  1.0E-07
  7.750E-04  4.57402E-11  1.51255E-15  5.40142E+01  2.02934E-09  1.0E-07
  8.000E-04  4.87388E-11  1.51255E-15  5.40142E+01  2.09480E-09  1.0E-07
  8.250E-04  5.18325E-11  1.51255E-15  5.40142E+01  2.16027E-09  1.0E-07
  8.500E-04  5.50215E-11  1.51255E-15  5.40142E+01  2.22573E-09  1.0E-07
  8.750E-04  5.83057E-11  1.51255E-15  5.40142E+01  2.29119E-09  1.0E-07
  9.000E-04  6.16850E-11  1.51255E-15  5.40142E+01  2.35665E-09  1.0E-07
  9.250E-04  6.51595E-11  1.51255E-15  5.40142E+01  2.42212E-09  1.0E-07
  9.500E-04  6.87293E-11  1.51255E-15  5.40142E+01  2.48758E-09  1.0E-07
  9.750E-04  7.23943E-11  1.51255E-15  5.40142E+01  2.55304E-09  1.0E-07
  1.000E-03  7.61544E-11  1.51255E-15  5.40142E+01  2.61850E-09  1.0E-07
  1.250E-03  1.18991E-10  1.51255E-15  5.40142E+01  3.27313E-09  1.0E-07
  1.500E-03  1.71347E-10  1.51255E-15  5.40142E+01  3.92776E-09  1.0E-07
  1.750E-03  2.33223E-10  1.51255E-15  5.40142E+01  4.58238E-09  1.0E-07
  2.000E-03  3.04617E-10  1.51255E-15  5.40141E+01  5.23701E-09  1.0E-07
  2.250E-03  3.85531E-10  1.51255E-15  5.40141E+01  5.89164E-09  1.0E-07
  2.500E-03  4.75965E-10  1.51255E-15  5.40141E+01  6.54626E-09  1.0E-07
  2.750E-03  5.75917E-10  1.51255E-15  5.40141E+01  7.20089E-09  1.0E-07
  3.000E-03  6.85389E-10  1.51255E-15  5.40141E+01  7.85552E-09  1.0E-07
  3.250E-03  8.04380E-10  1.51255E-15  5.40141E+01  8.51014E-09  1.0E-07
  3.500E-03  9.32891E-10  1.51255E-15  5.40141E+01  9.16477E-09  1.0E-07
  3.750E-03  1.07092E-09  1.51255E-15  5.40141E+01  9.81940E-09  1.0E-07
  4.000E-03  1.21847E-09  1.51255E-15  5.40141E+01  1.04740E-08  1.0E-07
  4.250E-03  1.37554E-09  1.51255E-15  5.40140E+01  1.11287E-08  1.0E-07
  4.500E-03  1.54213E-09  1.51255E-15  5.40140E+01  1.17833E-08  1.0E-07
  4.750E-03  1.71823E-09  1.51255E-15  5.40140E+01  1.24379E-08  1.0E-07
  5.000E-03  1.90386E-09  1.51255E-15  5.40140E+01  1.30925E-08  1.0E-07
  5.250E-03  2.09900E-09  1.51255E-15  5.40140E+01  1.37472E-08  1.0E-07
  5.500E-03  2.30367E-09  1.51254E-15  5.40139E+01  1.44018E-08  1.0E-07
  5.750E-03  2.51785E-09  1.51254E-15  5.40139E+01  1.50564E-08  1.0E-07
  6.000E-03  2.74156E-09  1.51254E-15  5.40139E+01  1.57111E-08  1.0E-07
  6.250E-03  2.97478E-09  1.51254E-15  5.40139E+01  1.63657E-08  1.0E-07
  6.500E-03  3.21752E-09  1.51254E-15  5.40139E+01  1.70203E-08  1.0E-07
  6.750E-03  3.46978E-09  1.51254E-15  5.40138E+01  1.76750E-08  1.0E-07
  7.000E-03  3.73156E-09  1.51254E-15  5.40138E+01  1.83296E-08  1.0E-07
  7.250E-03  4.00286E-09  1.51254E-15  5.40138E+01  1.89842E-08  1.0E-07
  7.500E-03  4.28368E-09  1.51254E-15  5.40137E+01  1.96388E-08  1.0E-07
  7.750E-03  4.57402E-09  1.51254E-15  5.40137E+01  2.02935E-08  1.0E-07
  8.000E-03  4.87388E-09  1.51254E-15  5.40137E+01  2.09481E-08  1.0E-07
  8.250E-03  5.18326E-09  1.51254E-15  5.40137E+01  2.16027E-08  1.0E-07
  8.500E-03  5.50215E-09  1.51254E-15  5.40136E+01  2.22574E-08  1.0E-07
  8.750E-03  5.83057E-09  1.51253E-15  5.40136E+01  2.29120E-08  1.0E-07
  9.000E-03  6.16850E-09  1.51253E-15  5.40136E+01  2.35667E-08  1.0E-07
  9.250E-03  6.51596E-09  1.51253E-15  5.40135E+01  2.42213E-08  1.0E-07
  9.500E-03  6.87293E-09  1.51253E-15  5.40135E+01  2.48759E-08  1.0E-07
  9.750E-03  7.23942E-09  1.51253E-15  5.40134E+01  2.55306E-08  1.0E-07
  1.000E-02  7.61544E-09  1.51253E-15  5.40134E+01  2.61852E-08  1.0E-07
  1.250E-02  1.18991E-08  1.51252E-15  5.40130E+01  3.27316E-08  1.0E-07
  1.500E-02  1.71347E-08  1.51250E-15  5.40125E+01  3.92781E-08  1.0E-07
  1.750E-02  2.33223E-08  1.51249E-15  5.40118E+01  4.58247E-08  1.0E-07
  2.000E-02  3.04617E-08  1.51247E-15  5.40111E+01  5.23713E-08  1.0E-07
  2.250E-02  3.85531E-08  1.51244E-15  5.40103E+01  5.89181E-08  1.0E-07
  2.500E-02  4.75965E-08  1.51242E-15  5.40094E+01  6.54651E-08  1.0E-07
  2.750E-02  5.75917E-08  1.51239E-15  5.40084E+01  7.20121E-08  1.0E-07
  3.000E-02  6.85389E-08  1.51236E-15  5.40073E+01  7.85593E-08  1.0E-07
  3.250E-02  8.04380E-08  1.51233E-15  5.40061E+01  8.51068E-08  1.0E-07
  3.500E-02  9.32891E-08  1.51229E-15  5.40048E+01  9.16543E-08  1.0E-07
  3.750E-02  1.07092E-07  1.51225E-15  5.40035E+01  9.82021E-08  1.0E-07
  4.000E-02  1.21847E-07  1.51221E-15  5.40020E+01  1.04750E-07  1.0E-07
  4.250E-02  1.37554E-07  1.51217E-15  5.40004E+01  1.11298E-07  1.0E-07
  4.500E-02  1.54213E-07  1.51212E-15  5.39987E+01  1.17847E-07  1.0E-07
  4.750E-02  1.71823E-07  1.51207E-15  5.39970E+01  1.24396E-07  1.0E-07
  5.000E-02  1.90386E-07  1.51202E-15  5.39951E+01  1.30945E-07  1.0E-07
  5.250E-02  2.09900E-07  1.51196E-15  5.39932E+01  1.37494E-07  1.0E-07
  5.500E-02  2.30367E-07  1.51191E-15  5.39911E+01  1.44044E-07  1.0E-07
  5.750E-02  2.51785E-07  1.51185E-15  5.39890E+01  1.50594E-07  1.0E-07
  6.000E-02  2.74156E-07  1.51178E-15  5.39867E+01  1.57144E-07  1.0E-07
  6.250E-02  2.97478E-07  1.51172E-15  5.39844E+01  1.63695E-07  1.0E-07
  6.500E-02  3.21752E-07  1.51165E-15  5.39820E+01  1.70246E-07  1.0E-07
  6.750E-02  3.46978E-07  1.51158E-15  5.39795E+01  1.76797E-07  1.0E-07
  7.000E-02  3.73156E-07  1.51151E-15  5.39768E+01  1.83349E-07  1.0E-07
  7.250E-02  4.00286E-07  1.51143E-15  5.39741E+01  1.89901E-07  1.0E-07
  7.500E-02  4.28368E-07  1.51135E-15  5.39713E+01  1.96454E-07  1.0E-07
  7.750E-02  4.57402E-07  1.51127E-15  5.39684E+01  2.03007E-07  1.0E-07
  8.000E-02  4.87388E-07  1.51119E-15  5.39654E+01  2.09560E-07  1.0E-07
  8.250E-02  5.18325E-07  1.51110E-15  5.39623E+01  2.16114E-07  1.0E-07
  8.500E-02  5.50215E-07  1.51101E-15  5.39591E+01  2.22669E-07  1.0E-07
  8.750E-02  5.83057E-07  1.51092E-15  5.39559E+01  2.29224E-07  1.0E-07
  9.000E-02  6.16850E-07  1.51082E-15  5.39525E+01  2.35779E-07  1.0E-07
  9.250E-02  6.51596E-07  1.51073E-15  5.39490E+01  2.42335E-07  1.0E-07
  9.500E-02  6.87293E-07  1.51063E-15  5.39454E+01  2.48892E-07  1.0E-07
  9.750E-02  7.23942E-07  1.51052E-15  5.39418E+01  2.55449E-07  1.0E-07
  1.000E-01  7.61543E-07  1.51042E-15  5.39380E+01  2.62007E-07  1.0E-07
  1.250E-01  1.18991E-06  1.50922E-15  5.38952E+01  3.27618E-07  1.0E-07
  1.500E-01  1.71347E-06  1.50776E-15  5.38430E+01  3.93303E-07  1.0E-07
  1.750E-01  2.33223E-06  1.50603E-15  5.37813E+01  4.59075E-07  1.0E-07
  2.000E-01  3.04617E-06  1.50404E-15  5.37103E+01  5.24950E-07  1.0E-07
  2.250E-01  3.85531E-06  1.50179E-15  5.36298E+01  5.90943E-07  1.0E-07
  2.500E-01  4.75964E-06  1.49928E-15  5.35401E+01  6.57067E-07  1.0E-07
  2.750E-01  5.75916E-06  1.49651E-15  5.34412E+01  7.23338E-07  1.0E-07
  3.000E-01  6.85388E-06  1.49348E-15  5.33330E+01  7.89771E-07  1.0E-07
  3.250E-01  8.04378E-06  1.49019E-15  5.32157E+01  8.56381E-07  1.0E-07
  3.500E-01  9.32888E-06  1.48665E-15  5.30894E+01  9.23181E-07  1.0E-07
  3.750E-01  1.07092E-05  1.48287E-15  5.29541E+01  9.90188E-07  1.0E-07
  4.000E-01  1.21846E-05  1.47883E-15  5.28099E+01  1.05742E-06  1.0E-07
  4.250E-01  1.37553E-05  1.47454E-15  5.26568E+01  1.12488E-06  1.0E-07
  4.500E-01  1.54212E-05  1.47001E-15  5.24950E+01  1.19259E-06  1.0E-07
  4.750E-01  1.71822E-05  1.46524E-15  5.23246E+01  1.26058E-06  1.0E-07
  5.000E-01  1.90385E-05  1.46023E-15  5.21456E+01  1.32884E-06  1.0E-07
  5.250E-01  2.09899E-05  1.45498E-15  5.19582E+01  1.39740E-06  1.0E-07
  5.500E-01  2.30365E-05  1.44950E-15  5.17624E+01  1.46627E-06  1.0E-07
  5.750E-01  2.51783E-05  1.44378E-15  5.15584E+01  1.53547E-06  1.0E-07
  6.000E-01  2.74153E-05  1.43784E-15  5.13463E+01  1.60501E-06  1.0E-07
  6.250E-01  2.97475E-05  1.43168E-15  5.11263E+01  1.67490E-06  1.0E-07
  6.500E-01  3.21749E-05  1.42530E-15  5.08983E+01  1.74517E-06  1.0E-07
  6.750E-01  3.46974E-05  1.41870E-15  5.06626E+01  1.81583E-06  1.0E-07
  7.000E-01  3.73152E-05  1.41189E-15  5.04194E+01  1.88690E-06  1.0E-07
  7.250E-01  4.00281E-05  1.40486E-15  5.01686E+01  1.95838E-06  1.0E-07
  7.500E-01  4.28362E-05  1.39764E-15  4.99105E+01  2.03030E-06  1.0E-07
  7.750E-01  4.57395E-05  1.39021E-15  4.96453E+01  2.10267E-06  1.0E-07
  8.000E-01  4.87380E-05  1.38258E-15  4.93730E+01  2.17551E-06  1.0E-07
  8.250E-01  5.18317E-05  1.37477E-15  4.90938E+01  2.24883E-06  1.0E-07
  8.500E-01  5.50205E-05  1.36676E-15  4.88078E+01  2.32265E-06  1.0E-07
  8.750E-01  5.83045E-05  1.35857E-15  4.85153E+01  2.39699E-06  1.0E-07
  9.000E-01  6.16838E-05  1.35020E-15  4.82164E+01  2.47186E-06  1.0E-07
  9.250E-01  6.51582E-05  1.34165E-15  4.79112E+01  2.54728E-06  1.0E-07
  9.500E-01  6.87277E-05  1.33293E-15  4.75998E+01  2.62326E-06  1.0E-07
  9.750E-01  7.23925E-05  1.32405E-15  4.72826E+01  2.69982E-06  1.0E-07
  1.000E+00  7.61524E-05  1.31500E-15  4.69596E+01  2.77698E-06  1.0E-07
  1.100E+00  9.21439E-05  1.27730E-15  4.56132E+01  3.09193E-06  1.0E-07
  1.200E+00  1.09658E-04  1.23740E-15  4.41883E+01  3.41779E-06  1.0E-07
  1.300E+00  1.28695E-04  1.19562E-15  4.26963E+01  3.75565E-06  1.0E-07
  1.400E+00  1.49255E-04  1.15228E-15  4.11488E+01  4.10665E-06  1.0E-07
  1.500E+00  1.71338E-04  1.10772E-15  3.95573E+01  4.47192E-06  1.0E-07
  1.600E+00  1.94942E-04  1.06224E-15  3.79334E+01  4.85262E-06  1.0E-07
  1.700E+00  2.20070E-04  1.01617E-15  3.62881E+01  5.24994E-06  1.0E-07
  1.800E+00  2.46720E-04  9.69803E-16  3.46323E+01  5.66505E-06  1.0E-07
  1.900E+00  2.74892E-04  9.23426E-16  3.29761E+01  6.09915E-06  1.0E-07
  2.000E+00  3.04586E-04  8.77311E-16  3.13293E+01  6.55342E-06  1.0E-07
  2.100E+00  3.35803E-04  8.31707E-16  2.97008E+01  7.02905E-06  1.0E-07
  2.200E+00  3.68542E-04  7.86845E-16  2.80987E+01  7.52717E-06  1.0E-07
  2.300E+00  4.02802E-04  7.42931E-16  2.65305E+01  8.04891E-06  1.0E-07
  2.400E+00  4.38585E-04  7.00147E-16  2.50027E+01  8.59534E-06  1.0E-07
  2.500E+00  4.75889E-04  6.58653E-16  2.35209E+01  9.16745E-06  1.0E-07
  2.600E+00  5.14715E-04  6.18583E-16  2.20900E+01  9.76617E-06  1.0E-07
  2.700E+00  5.55063E-04  5.80048E-16  2.07139E+01  1.03923E-05  1.0E-07
  2.800E+00  5.96931E-04  5.43134E-16  1.93957E+01  1.10466E-05  1.0E-07
  2.900E+00  6.40321E-04  5.07908E-16  1.81377E+01  1.17295E-05  1.0E-07
  3.000E+00  6.85233E-04  4.74413E-16  1.69416E+01  1.24415E-05  1.0E-07
  3.100E+00  7.31665E-04  4.42672E-16  1.58081E+01  1.31827E-05  1.0E-07
  3.200E+00  7.79618E-04  4.12694E-16  1.47376E+01  1.39532E-05  1.0E-07
  3.300E+00  8.29092E-04  3.84467E-16  1.37296E+01  1.47528E-05  1.0E-07
  3.400E+00  8.80086E-04  3.57968E-16  1.27833E+01  1.55811E-05  1.0E-07
  3.500E+00  9.32601E-04  3.33160E-16  1.18974E+01  1.64374E-05  1.0E-07
  3.600E+00  9.86636E-04  3.09995E-16  1.10701E+01  1.73207E-05  1.0E-07
  3.700E+00  1.04219E-03  2.88416E-16  1.02995E+01  1.82301E-05  1.0E-07
  3.800E+00  1.09927E-03  2.68361E-16  9.58335E+00  1.91642E-05  1.0E-07
  3.900E+00  1.15786E-03  2.49760E-16  8.91909E+00  2.01215E-05  1.0E-07
  4.000E+00  1.21797E-03  2.32539E-16  8.30414E+00  2.11004E-05  1.0E-07
  4.100E+00  1.27961E-03  2.16624E-16  7.73579E+00  2.20990E-05  1.0E-07
  4.200E+00  1.34276E-03  2.01937E-16  7.21129E+00  2.31157E-05  1.0E-07
  4.300E+00  1.40743E-03  1.88399E-16  6.72786E+00  2.41484E-05  1.0E-07
  4.400E+00  1.47362E-03  1.75935E-16  6.28276E+00  2.51955E-05  1.0E-07
  4.500E+00  1.54133E-03  1.64469E-16  5.87330E+00  2.62551E-05  1.0E-07
  4.600E+00  1.61056E-03  1.53927E-16  5.49684E+00  2.73257E-05  1.0E-07
  4.700E+00  1.68131E-03  1.44239E-16  5.15088E+00  2.84058E-05  1.0E-07
  4.800E+00  1.75357E-03  1.35338E-16  4.83300E+00  2.94942E-05  1.0E-07
  4.900E+00  1.82735E-03  1.27158E-16  4.54089E+00  3.05898E-05  1.0E-07
  5.000E+00  1.90265E-03  1.19639E-16  4.27239E+00  3.16920E-05  1.0E-07
  5.100E+00  1.97947E-03  1.12724E-16  4.02546E+00  3.28001E-05  1.0E-07
  5.200E+00  2.05780E-03  1.06361E-16  3.79821E+00  3.39139E-05  1.0E-07
  5.300E+00  2.13765E-03  1.00498E-16  3.58886E+00  3.50332E-05  1.0E-07
  5.400E+00  2.21902E-03  9.50915E-17  3.39578E+00  3.61583E-05  1.0E-07
  5.500E+00  2.30190E-03  9.00981E-17  3.21746E+00  3.72893E-05  1.0E-07
  5.600E+00  2.38630E-03  8.54793E-17  3.05252E+00  3.84265E-05  1.0E-07
  5.700E+00  2.47222E-03  8.11997E-17  2.89970E+00  3.95703E-05  1.0E-07
  5.800E+00  2.55965E-03  7.72270E-17  2.75783E+00  4.07212E-05  1.0E-07
  5.900E+00  2.64859E-03  7.35319E-17  2.62587E+00  4.18794E-05  1.0E-07
  6.000E+00  2.73905E-03  7.00878E-17  2.50288E+00  4.30452E-05  1.0E-07
  6.100E+00  2.83103E-03  6.68709E-17  2.38800E+00  4.42189E-05  1.0E-07
  6.200E+00  2.92452E-03  6.38596E-17  2.28047E+00  4.54003E-05  1.0E-07
  6.300E+00  3.01952E-03  6.10346E-17  2.17958E+00  4.65894E-05  1.0E-07
  6.400E+00  3.11604E-03  5.83787E-17  2.08474E+00  4.77857E-05  1.0E-07
  6.500E+00  3.21407E-03  5.58766E-17  1.99539E+00  4.89889E-05  1.0E-07
  6.600E+00  3.31362E-03  5.35147E-17  1.91105E+00  5.01982E-05  1.0E-07
  6.700E+00  3.41468E-03  5.12809E-17  1.83128E+00  5.14126E-05  1.0E-07
  6.800E+00  3.51725E-03  4.91647E-17  1.75570E+00  5.26311E-05  1.0E-07
  6.900E+00  3.62133E-03  4.71565E-17  1.68399E+00  5.38524E-05  1.0E-07
  7.000E+00  3.72692E-03  4.52482E-17  1.61584E+00  5.50751E-05  1.0E-07
  7.100E+00  3.83403E-03  4.34325E-17  1.55100E+00  5.62977E-05  1.0E-07
  7.200E+00  3.94265E-03  4.17031E-17  1.48925E+00  5.75186E-05  1.0E-07
  7.300E+00  4.05278E-03  4.00545E-17  1.43037E+00  5.87360E-05  1.0E-07
  7.400E+00  4.16442E-03  3.84816E-17  1.37420E+00  5.99482E-05  1.0E-07
  7.500E+00  4.27757E-03  3.69802E-17  1.32059E+00  6.11534E-05  1.0E-07
  7.600E+00  4.39223E-03  3.55465E-17  1.26939E+00  6.23501E-05  1.0E-07
  7.700E+00  4.50840E-03  3.41770E-17  1.22048E+00  6.35365E-05  1.0E-07
  7.800E+00  4.62608E-03  3.28687E-17  1.17376E+00  6.47111E-05  1.0E-07
  7.900E+00  4.74527E-03  3.16187E-17  1.12913E+00  6.58726E-05  1.0E-07
  8.000E+00  4.86597E-03  3.04246E-17  1.08648E+00  6.70197E-05  1.0E-07
  8.100E+00  4.98817E-03  2.92840E-17  1.04575E+00  6.81515E-05  1.0E-07
  8.200E+00  5.11188E-03  2.81947E-17  1.00685E+00  6.92673E-05  1.0E-07
  8.300E+00  5.23711E-03  2.71545E-17  9.69706E-01  7.03666E-05  1.0E-07
  8.400E+00  5.36383E-03  2.61616E-17  9.34246E-01  7.14491E-05  1.0E-07
  8.500E+00  5.49207E-03  2.52138E-17  9.00402E-01  7.25150E-05  1.0E-07
  8.600E+00  5.62181E-03  2.43094E-17  8.68106E-01  7.35645E-05  1.0E-07
  8.700E+00  5.75306E-03  2.34466E-17  8.37293E-01  7.45983E-05  1.0E-07
  8.800E+00  5.88581E-03  2.26235E-17  8.07898E-01  7.56172E-05  1.0E-07
  8.900E+00  6.02007E-03  2.18383E-17  7.79859E-01  7.66221E-05  1.0E-07
  9.000E+00  6.15583E-03  2.10893E-17  7.53113E-01  7.76143E-05  1.0E-07
  9.100E+00  6.29310E-03  2.03748E-17  7.27598E-01  7.85950E-05  1.0E-07
  9.200E+00  6.43187E-03  1.96931E-17  7.03255E-01  7.95657E-05  1.0E-07
  9.300E+00  6.57214E-03  1.90426E-17  6.80025E-01  8.05275E-05  1.0E-07
  9.400E+00  6.71392E-03  1.84217E-17  6.57850E-01  8.14819E-05  1.0E-07
  9.500E+00  6.85720E-03  1.78287E-17  6.36674E-01  8.24300E-05  1.0E-07
  9.600E+00  7.00198E-03  1.72621E-17  6.16442E-01  8.33729E-05  1.0E-07
  9.700E+00  7.14827E-03  1.67206E-17  5.97102E-01  8.43113E-05  1.0E-07
  9.800E+00  7.29605E-03  1.62025E-17  5.78603E-01  8.52459E-05  1.0E-07
  9.900E+00  7.44534E-03  1.57067E-17  5.60897E-01  8.61769E-05  1.0E-07
  1.000E+01  7.59612E-03  1.52318E-17  5.43936E-01  8.71042E-05  1.0E-07
  1.025E+01  7.97965E-03  1.41278E-17  5.04512E-01  8.94030E-05  1.0E-07
  1.050E+01  8.37255E-03  1.31292E-17  4.68853E-01  9.16600E-05  1.0E-07
  1.075E+01  8.77480E-03  1.22212E-17  4.36428E-01  9.38474E-05  1.0E-07
  1.100E+01  9.18641E-03  1.13915E-17  4.06798E-01  9.59278E-05  1.0E-07
  1.125E+01  9.60736E-03  1.06302E-17  3.79610E-01  9.78589E-05  1.0E-07
  1.150E+01  1.00376E-02  9.92933E-18  3.54583E-01  9.95990E-05  1.0E-07
  1.175E+01  1.04773E-02  9.28287E-18  3.31497E-01  1.01112E-04  1.0E-07
  1.200E+01  1.09262E-02  8.68594E-18  3.10181E-01  1.02372E-04  1.0E-07
  1.225E+01  1.13844E-02  8.13462E-18  2.90492E-01  1.03369E-04  1.0E-07
  1.250E+01  1.18520E-02  7.62557E-18  2.72314E-01  1.04104E-04  1.0E-07
  1.275E+01  1.23288E-02  7.15581E-18  2.55539E-01  1.04597E-04  1.0E-07
  1.300E+01  1.28150E-02  6.72249E-18  2.40065E-01  1.04874E-04  1.0E-07
  1.325E+01  1.33104E-02  6.32283E-18  2.25793E-01  1.04969E-04  1.0E-07
  1.350E+01  1.38150E-02  5.95407E-18  2.12624E-01  1.04914E-04  1.0E-07
  1.375E+01  1.43290E-02  5.61349E-18  2.00461E-01  1.04732E-04  1.0E-07
  1.400E+01  1.48521E-02  5.29842E-18  1.89210E-01  1.04436E-04  1.0E-07
  1.425E+01  1.53845E-02  5.00637E-18  1.78781E-01  1.04019E-04  1.0E-07
  1.450E+01  1.59262E-02  4.73501E-18  1.69090E-01  1.03458E-04  1.0E-07
  1.475E+01  1.64770E-02  4.48224E-18  1.60064E-01  1.02715E-04  1.0E-07
