 #
 # Subroutine ELSEPA. Elastic scattering of electrons and positrons
 #                    by neutral atoms and positive ions
 #
 # Projectile: electron
 # Kinetic energy = 8.00000E+02 eV = 2.93995E+01 a.u.
 #
 # Element: Si,  Z =  14,  atomic weight = 2.80855E+01 g/mol
 #
 # Nuclear model: Fermi distribution
 #                Average radius = 3.25245E-13 cm
 #                Skin thickness = 5.46000E-14 cm
 #
 # Number of electrons = 14
 #
 # Electron density: analytical DHFS model
 #                   A1 =  5.15971D-01 ,   ALPHA1 = 5.84918D+00
 #                   A2 =  4.84029D-01 ,   ALPHA2 = 1.17314D+00
 #                   A3 =  0.00000D+00 ,   ALPHA3 = 1.00000D+00
 #                   Volume integral = 1.40000E+01
 #
 # Muffin-tin model: Rmt = 1.68000E-08 cm
 #
 # Furness-McCarthy exchange potential
 #
 # Total elastic cross section = 1.27961E-16 cm**2 = 4.56956E+00 a0**2
 # 1st transport cross section = 1.80316E-17 cm**2 = 6.43919E-01 a0**2
 # 2nd transport cross section = 2.77939E-17 cm**2 = 9.92539E-01 a0**2
 #
 #
 # Differential cross section:                       MU=(1-COS(THETA))/2
 #
 #  THETA        MU          DCS          DCS        Sherman      error
 #  (deg)                 (cm**2/sr)   (a0**2/sr)    function
 #----------------------------------------------------------------------
  0.000E+00  0.00000E+00  1.00301E-15  3.58180E+01  0.00000E+00  1.0E-07
  1.000E-04  7.61557E-13  1.00301E-15  3.58180E+01  8.25049E-11  1.0E-07
  1.250E-04  1.18994E-12  1.00301E-15  3.58180E+01  1.03131E-10  1.0E-07
  1.500E-04  1.71346E-12  1.00301E-15  3.58180E+01  1.23757E-10  1.0E-07
  1.750E-04  2.33225E-12  1.00301E-15  3.58180E+01  1.44384E-10  1.0E-07
  2.000E-04  3.04617E-12  1.00301E-15  3.58180E+01  1.65010E-10  1.0E-07
  2.250E-04  3.85530E-12  1.00301E-15  3.58180E+01  1.85636E-10  1.0E-07
  2.500E-04  4.75964E-12  1.00301E-15  3.58180E+01  2.06262E-10  1.0E-07
  2.750E-04  5.75917E-12  1.00301E-15  3.58180E+01  2.26889E-10  1.0E-07
  3.000E-04  6.85391E-12  1.00301E-15  3.58180E+01  2.47515E-10  1.0E-07
  3.250E-04  8.04379E-12  1.00301E-15  3.58180E+01  2.68141E-10  1.0E-07
  3.500E-04  9.32893E-12  1.00301E-15  3.58180E+01  2.88767E-10  1.0E-07
  3.750E-04  1.07092E-11  1.00301E-15  3.58180E+01  3.09394E-10  1.0E-07
  4.000E-04  1.21847E-11  1.00301E-15  3.58180E+01  3.30020E-10  1.0E-07
  4.250E-04  1.37554E-11  1.00301E-15  3.58180E+01  3.50646E-10  1.0E-07
  4.500E-04  1.54213E-11  1.00301E-15  3.58180E+01  3.71272E-10  1.0E-07
  4.750E-04  1.71823E-11  1.00301E-15  3.58180E+01  3.91898E-10  1.0E-07
  5.000E-04  1.90386E-11  1.00301E-15  3.58180E+01  4.12525E-10  1.0E-07
  5.250E-04  2.09900E-11  1.00301E-15  3.58180E+01  4.33151E-10  1.0E-07
  5.500E-04  2.30367E-11  1.00301E-15  3.58180E+01  4.53777E-10  1.0E-07
  5.750E-04  2.51785E-11  1.00301E-15  3.58180E+01  4.74403E-10  1.0E-07
  6.000E-04  2.74156E-11  1.00301E-15  3.58180E+01  4.95030E-10  1.0E-07
  6.250E-04  2.97478E-11  1.00301E-15  3.58180E+01  5.15656E-10  1.0E-07
  6.500E-04  3.21752E-11  1.00301E-15  3.58180E+01  5.36282E-10  1.0E-07
  6.750E-04  3.46979E-11  1.00301E-15  3.58180E+01  5.56908E-10  1.0E-07
  7.000E-04  3.73157E-11  1.00301E-15  3.58180E+01  5.77535E-10  1.0E-07
  7.250E-04  4.00286E-11  1.00301E-15  3.58180E+01  5.98161E-10  1.0E-07
  7.500E-04  4.28368E-11  1.00301E-15  3.58180E+01  6.18787E-10  1.0E-07
  7.750E-04  4.57402E-11  1.00301E-15  3.58180E+01  6.39413E-10  1.0E-07
  8.000E-04  4.87388E-11  1.00301E-15  3.58180E+01  6.60040E-10  1.0E-07
  8.250E-04  5.18325E-11  1.00301E-15  3.58180E+01  6.80666E-10  1.0E-07
  8.500E-04  5.50215E-11  1.00301E-15  3.58180E+01  7.01292E-10  1.0E-07
  8.750E-04  5.83057E-11  1.00301E-15  3.58180E+01  7.21918E-10  1.0E-07
  9.000E-04  6.16850E-11  1.00301E-15  3.58180E+01  7.42544E-10  1.0E-07
  9.250E-04  6.51595E-11  1.00301E-15  3.58180E+01  7.63171E-10  1.0E-07
  9.500E-04  6.87293E-11  1.00301E-15  3.58180E+01  7.83797E-10  1.0E-07
  9.750E-04  7.23943E-11  1.00301E-15  3.58180E+01  8.04423E-10  1.0E-07
  1.000E-03  7.61544E-11  1.00301E-15  3.58180E+01  8.25049E-10  1.0E-07
  1.250E-03  1.18991E-10  1.00301E-15  3.58180E+01  1.03131E-09  1.0E-07
  1.500E-03  1.71347E-10  1.00301E-15  3.58180E+01  1.23757E-09  1.0E-07
  1.750E-03  2.33223E-10  1.00301E-15  3.58180E+01  1.44384E-09  1.0E-07
  2.000E-03  3.04617E-10  1.00301E-15  3.58180E+01  1.65010E-09  1.0E-07
  2.250E-03  3.85531E-10  1.00301E-15  3.58180E+01  1.85636E-09  1.0E-07
  2.500E-03  4.75965E-10  1.00301E-15  3.58180E+01  2.06262E-09  1.0E-07
  2.750E-03  5.75917E-10  1.00301E-15  3.58180E+01  2.26889E-09  1.0E-07
  3.000E-03  6.85389E-10  1.00301E-15  3.58180E+01  2.47515E-09  1.0E-07
  3.250E-03  8.04380E-10  1.00301E-15  3.58180E+01  2.68141E-09  1.0E-07
  3.500E-03  9.32891E-10  1.00301E-15  3.58180E+01  2.88767E-09  1.0E-07
  3.750E-03  1.07092E-09  1.00301E-15  3.58180E+01  3.09394E-09  1.0E-07
  4.000E-03  1.21847E-09  1.00301E-15  3.58180E+01  3.30020E-09  1.0E-07
  4.250E-03  1.37554E-09  1.00301E-15  3.58180E+01  3.50646E-09  1.0E-07
  4.500E-03  1.54213E-09  1.00301E-15  3.58180E+01  3.71272E-09  1.0E-07
  4.750E-03  1.71823E-09  1.00301E-15  3.58180E+01  3.91899E-09  1.0E-07
  5.000E-03  1.90386E-09  1.00301E-15  3.58180E+01  4.12525E-09  1.0E-07
  5.250E-03  2.09900E-09  1.00301E-15  3.58180E+01  4.33151E-09  1.0E-07
  5.500E-03  2.30367E-09  1.00301E-15  3.58180E+01  4.53777E-09  1.0E-07
  5.750E-03  2.51785E-09  1.00301E-15  3.58180E+01  4.74404E-09  1.0E-07
  6.000E-03  2.74156E-09  1.00301E-15  3.58180E+01  4.95030E-09  1.0E-07
  6.250E-03  2.97478E-09  1.00301E-15  3.58180E+01  5.15656E-09  1.0E-07
  6.500E-03  3.21752E-09  1.00301E-15  3.58180E+01  5.36282E-09  1.0E-07
  6.750E-03  3.46978E-09  1.00301E-15  3.58180E+01  5.56909E-09  1.0E-07
  7.000E-03  3.73156E-09  1.00301E-15  3.58180E+01  5.77535E-09  1.0E-07
  7.250E-03  4.00286E-09  1.00301E-15  3.58180E+01  5.98161E-09  1.0E-07
  7.500E-03  4.28368E-09  1.00301E-15  3.58180E+01  6.18787E-09  1.0E-07
  7.750E-03  4.57402E-09  1.00301E-15  3.58180E+01  6.39414E-09  1.0E-07
  8.000E-03  4.87388E-09  1.00301E-15  3.58180E+01  6.60040E-09  1.0E-07
  8.250E-03  5.18326E-09  1.00301E-15  3.58180E+01  6.80666E-09  1.0E-07
  8.500E-03  5.50215E-09  1.00300E-15  3.58180E+01  7.01293E-09  1.0E-07
  8.750E-03  5.83057E-09  1.00300E-15  3.58180E+01  7.21919E-09  1.0E-07
  9.000E-03  6.16850E-09  1.00300E-15  3.58180E+01  7.42545E-09  1.0E-07
  9.250E-03  6.51596E-09  1.00300E-15  3.58180E+01  7.63172E-09  1.0E-07
  9.500E-03  6.87293E-09  1.00300E-15  3.58180E+01  7.83798E-09  1.0E-07
  9.750E-03  7.23942E-09  1.00300E-15  3.58179E+01  8.04424E-09  1.0E-07
  1.000E-02  7.61544E-09  1.00300E-15  3.58179E+01  8.25050E-09  1.0E-07
  1.250E-02  1.18991E-08  1.00300E-15  3.58179E+01  1.03131E-08  1.0E-07
  1.500E-02  1.71347E-08  1.00300E-15  3.58179E+01  1.23758E-08  1.0E-07
  1.750E-02  2.33223E-08  1.00300E-15  3.58179E+01  1.44384E-08  1.0E-07
  2.000E-02  3.04617E-08  1.00300E-15  3.58178E+01  1.65011E-08  1.0E-07
  2.250E-02  3.85531E-08  1.00300E-15  3.58178E+01  1.85637E-08  1.0E-07
  2.500E-02  4.75965E-08  1.00300E-15  3.58177E+01  2.06264E-08  1.0E-07
  2.750E-02  5.75917E-08  1.00300E-15  3.58177E+01  2.26891E-08  1.0E-07
  3.000E-02  6.85389E-08  1.00300E-15  3.58176E+01  2.47518E-08  1.0E-07
  3.250E-02  8.04380E-08  1.00299E-15  3.58175E+01  2.68145E-08  1.0E-07
  3.500E-02  9.32891E-08  1.00299E-15  3.58175E+01  2.88772E-08  1.0E-07
  3.750E-02  1.07092E-07  1.00299E-15  3.58174E+01  3.09399E-08  1.0E-07
  4.000E-02  1.21847E-07  1.00299E-15  3.58173E+01  3.30026E-08  1.0E-07
  4.250E-02  1.37554E-07  1.00298E-15  3.58172E+01  3.50654E-08  1.0E-07
  4.500E-02  1.54213E-07  1.00298E-15  3.58171E+01  3.71282E-08  1.0E-07
  4.750E-02  1.71823E-07  1.00298E-15  3.58170E+01  3.91910E-08  1.0E-07
  5.000E-02  1.90386E-07  1.00298E-15  3.58169E+01  4.12538E-08  1.0E-07
  5.250E-02  2.09900E-07  1.00297E-15  3.58168E+01  4.33166E-08  1.0E-07
  5.500E-02  2.30367E-07  1.00297E-15  3.58167E+01  4.53795E-08  1.0E-07
  5.750E-02  2.51785E-07  1.00297E-15  3.58166E+01  4.74423E-08  1.0E-07
  6.000E-02  2.74156E-07  1.00296E-15  3.58165E+01  4.95052E-08  1.0E-07
  6.250E-02  2.97478E-07  1.00296E-15  3.58163E+01  5.15681E-08  1.0E-07
  6.500E-02  3.21752E-07  1.00296E-15  3.58162E+01  5.36311E-08  1.0E-07
  6.750E-02  3.46978E-07  1.00295E-15  3.58161E+01  5.56941E-08  1.0E-07
  7.000E-02  3.73156E-07  1.00295E-15  3.58159E+01  5.77571E-08  1.0E-07
  7.250E-02  4.00286E-07  1.00294E-15  3.58158E+01  5.98201E-08  1.0E-07
  7.500E-02  4.28368E-07  1.00294E-15  3.58156E+01  6.18831E-08  1.0E-07
  7.750E-02  4.57402E-07  1.00294E-15  3.58155E+01  6.39462E-08  1.0E-07
  8.000E-02  4.87388E-07  1.00293E-15  3.58153E+01  6.60093E-08  1.0E-07
  8.250E-02  5.18325E-07  1.00293E-15  3.58151E+01  6.80725E-08  1.0E-07
  8.500E-02  5.50215E-07  1.00292E-15  3.58149E+01  7.01356E-08  1.0E-07
  8.750E-02  5.83057E-07  1.00292E-15  3.58148E+01  7.21988E-08  1.0E-07
  9.000E-02  6.16850E-07  1.00291E-15  3.58146E+01  7.42621E-08  1.0E-07
  9.250E-02  6.51596E-07  1.00291E-15  3.58144E+01  7.63254E-08  1.0E-07
  9.500E-02  6.87293E-07  1.00290E-15  3.58142E+01  7.83887E-08  1.0E-07
  9.750E-02  7.23942E-07  1.00289E-15  3.58140E+01  8.04520E-08  1.0E-07
  1.000E-01  7.61543E-07  1.00289E-15  3.58138E+01  8.25154E-08  1.0E-07
  1.250E-01  1.18991E-06  1.00282E-15  3.58114E+01  1.03152E-07  1.0E-07
  1.500E-01  1.71347E-06  1.00274E-15  3.58085E+01  1.23793E-07  1.0E-07
  1.750E-01  2.33223E-06  1.00265E-15  3.58051E+01  1.44440E-07  1.0E-07
  2.000E-01  3.04617E-06  1.00253E-15  3.58012E+01  1.65094E-07  1.0E-07
  2.250E-01  3.85531E-06  1.00241E-15  3.57967E+01  1.85756E-07  1.0E-07
  2.500E-01  4.75964E-06  1.00227E-15  3.57917E+01  2.06426E-07  1.0E-07
  2.750E-01  5.75916E-06  1.00212E-15  3.57862E+01  2.27107E-07  1.0E-07
  3.000E-01  6.85388E-06  1.00195E-15  3.57801E+01  2.47798E-07  1.0E-07
  3.250E-01  8.04378E-06  1.00176E-15  3.57736E+01  2.68501E-07  1.0E-07
  3.500E-01  9.32888E-06  1.00156E-15  3.57665E+01  2.89217E-07  1.0E-07
  3.750E-01  1.07092E-05  1.00135E-15  3.57589E+01  3.09947E-07  1.0E-07
  4.000E-01  1.21846E-05  1.00112E-15  3.57507E+01  3.30691E-07  1.0E-07
  4.250E-01  1.37553E-05  1.00088E-15  3.57421E+01  3.51452E-07  1.0E-07
  4.500E-01  1.54212E-05  1.00062E-15  3.57329E+01  3.72229E-07  1.0E-07
  4.750E-01  1.71822E-05  1.00035E-15  3.57232E+01  3.93024E-07  1.0E-07
  5.000E-01  1.90385E-05  1.00007E-15  3.57130E+01  4.13837E-07  1.0E-07
  5.250E-01  2.09899E-05  9.99765E-16  3.57022E+01  4.34670E-07  1.0E-07
  5.500E-01  2.30365E-05  9.99449E-16  3.56910E+01  4.55524E-07  1.0E-07
  5.750E-01  2.51783E-05  9.99119E-16  3.56792E+01  4.76400E-07  1.0E-07
  6.000E-01  2.74153E-05  9.98775E-16  3.56669E+01  4.97299E-07  1.0E-07
  6.250E-01  2.97475E-05  9.98416E-16  3.56541E+01  5.18221E-07  1.0E-07
  6.500E-01  3.21749E-05  9.98042E-16  3.56407E+01  5.39168E-07  1.0E-07
  6.750E-01  3.46974E-05  9.97654E-16  3.56269E+01  5.60141E-07  1.0E-07
  7.000E-01  3.73152E-05  9.97251E-16  3.56125E+01  5.81141E-07  1.0E-07
  7.250E-01  4.00281E-05  9.96834E-16  3.55976E+01  6.02168E-07  1.0E-07
  7.500E-01  4.28362E-05  9.96403E-16  3.55822E+01  6.23224E-07  1.0E-07
  7.750E-01  4.57395E-05  9.95957E-16  3.55663E+01  6.44310E-07  1.0E-07
  8.000E-01  4.87380E-05  9.95497E-16  3.55498E+01  6.65427E-07  1.0E-07
  8.250E-01  5.18317E-05  9.95022E-16  3.55329E+01  6.86575E-07  1.0E-07
  8.500E-01  5.50205E-05  9.94533E-16  3.55154E+01  7.07756E-07  1.0E-07
  8.750E-01  5.83045E-05  9.94030E-16  3.54975E+01  7.28972E-07  1.0E-07
  9.000E-01  6.16838E-05  9.93513E-16  3.54790E+01  7.50222E-07  1.0E-07
  9.250E-01  6.51582E-05  9.92981E-16  3.54600E+01  7.71508E-07  1.0E-07
  9.500E-01  6.87277E-05  9.92435E-16  3.54405E+01  7.92831E-07  1.0E-07
  9.750E-01  7.23925E-05  9.91874E-16  3.54205E+01  8.14192E-07  1.0E-07
  1.000E+00  7.61524E-05  9.91300E-16  3.54000E+01  8.35592E-07  1.0E-07
  1.100E+00  9.21439E-05  9.88860E-16  3.53128E+01  9.21602E-07  1.0E-07
  1.200E+00  1.09658E-04  9.86196E-16  3.52177E+01  1.00832E-06  1.0E-07
  1.300E+00  1.28695E-04  9.83308E-16  3.51146E+01  1.09581E-06  1.0E-07
  1.400E+00  1.49255E-04  9.80200E-16  3.50036E+01  1.18415E-06  1.0E-07
  1.500E+00  1.71338E-04  9.76873E-16  3.48848E+01  1.27340E-06  1.0E-07
  1.600E+00  1.94942E-04  9.73331E-16  3.47583E+01  1.36363E-06  1.0E-07
  1.700E+00  2.20070E-04  9.69575E-16  3.46241E+01  1.45492E-06  1.0E-07
  1.800E+00  2.46720E-04  9.65608E-16  3.44825E+01  1.54733E-06  1.0E-07
  1.900E+00  2.74892E-04  9.61434E-16  3.43334E+01  1.64094E-06  1.0E-07
  2.000E+00  3.04586E-04  9.57055E-16  3.41771E+01  1.73583E-06  1.0E-07
  2.100E+00  3.35803E-04  9.52475E-16  3.40135E+01  1.83207E-06  1.0E-07
  2.200E+00  3.68542E-04  9.47696E-16  3.38429E+01  1.92975E-06  1.0E-07
  2.300E+00  4.02802E-04  9.42724E-16  3.36653E+01  2.02893E-06  1.0E-07
  2.400E+00  4.38585E-04  9.37560E-16  3.34809E+01  2.12970E-06  1.0E-07
  2.500E+00  4.75889E-04  9.32209E-16  3.32898E+01  2.23215E-06  1.0E-07
  2.600E+00  5.14715E-04  9.26674E-16  3.30921E+01  2.33635E-06  1.0E-07
  2.700E+00  5.55063E-04  9.20961E-16  3.28881E+01  2.44240E-06  1.0E-07
  2.800E+00  5.96931E-04  9.15071E-16  3.26778E+01  2.55039E-06  1.0E-07
  2.900E+00  6.40321E-04  9.09011E-16  3.24614E+01  2.66040E-06  1.0E-07
  3.000E+00  6.85233E-04  9.02784E-16  3.22390E+01  2.77253E-06  1.0E-07
  3.100E+00  7.31665E-04  8.96394E-16  3.20108E+01  2.88687E-06  1.0E-07
  3.200E+00  7.79618E-04  8.89846E-16  3.17770E+01  3.00352E-06  1.0E-07
  3.300E+00  8.29092E-04  8.83145E-16  3.15377E+01  3.12259E-06  1.0E-07
  3.400E+00  8.80086E-04  8.76294E-16  3.12930E+01  3.24417E-06  1.0E-07
  3.500E+00  9.32601E-04  8.69300E-16  3.10433E+01  3.36837E-06  1.0E-07
  3.600E+00  9.86636E-04  8.62166E-16  3.07885E+01  3.49530E-06  1.0E-07
  3.700E+00  1.04219E-03  8.54897E-16  3.05289E+01  3.62507E-06  1.0E-07
  3.800E+00  1.09927E-03  8.47499E-16  3.02647E+01  3.75780E-06  1.0E-07
  3.900E+00  1.15786E-03  8.39976E-16  2.99961E+01  3.89361E-06  1.0E-07
  4.000E+00  1.21797E-03  8.32333E-16  2.97231E+01  4.03261E-06  1.0E-07
  4.100E+00  1.27961E-03  8.24575E-16  2.94461E+01  4.17493E-06  1.0E-07
  4.200E+00  1.34276E-03  8.16707E-16  2.91651E+01  4.32070E-06  1.0E-07
  4.300E+00  1.40743E-03  8.08735E-16  2.88804E+01  4.47005E-06  1.0E-07
  4.400E+00  1.47362E-03  8.00663E-16  2.85922E+01  4.62312E-06  1.0E-07
  4.500E+00  1.54133E-03  7.92497E-16  2.83006E+01  4.78005E-06  1.0E-07
  4.600E+00  1.61056E-03  7.84241E-16  2.80058E+01  4.94098E-06  1.0E-07
  4.700E+00  1.68131E-03  7.75901E-16  2.77079E+01  5.10607E-06  1.0E-07
  4.800E+00  1.75357E-03  7.67483E-16  2.74073E+01  5.27546E-06  1.0E-07
  4.900E+00  1.82735E-03  7.58990E-16  2.71040E+01  5.44932E-06  1.0E-07
  5.000E+00  1.90265E-03  7.50429E-16  2.67983E+01  5.62780E-06  1.0E-07
  5.100E+00  1.97947E-03  7.41804E-16  2.64903E+01  5.81108E-06  1.0E-07
  5.200E+00  2.05780E-03  7.33121E-16  2.61802E+01  5.99932E-06  1.0E-07
  5.300E+00  2.13765E-03  7.24385E-16  2.58683E+01  6.19272E-06  1.0E-07
  5.400E+00  2.21902E-03  7.15600E-16  2.55545E+01  6.39144E-06  1.0E-07
  5.500E+00  2.30190E-03  7.06772E-16  2.52393E+01  6.59568E-06  1.0E-07
  5.600E+00  2.38630E-03  6.97906E-16  2.49227E+01  6.80564E-06  1.0E-07
  5.700E+00  2.47222E-03  6.89006E-16  2.46049E+01  7.02152E-06  1.0E-07
  5.800E+00  2.55965E-03  6.80079E-16  2.42860E+01  7.24352E-06  1.0E-07
  5.900E+00  2.64859E-03  6.71127E-16  2.39664E+01  7.47187E-06  1.0E-07
  6.000E+00  2.73905E-03  6.62157E-16  2.36461E+01  7.70677E-06  1.0E-07
  6.100E+00  2.83103E-03  6.53173E-16  2.33252E+01  7.94846E-06  1.0E-07
  6.200E+00  2.92452E-03  6.44179E-16  2.30041E+01  8.19718E-06  1.0E-07
  6.300E+00  3.01952E-03  6.35181E-16  2.26827E+01  8.45316E-06  1.0E-07
  6.400E+00  3.11604E-03  6.26183E-16  2.23614E+01  8.71666E-06  1.0E-07
  6.500E+00  3.21407E-03  6.17189E-16  2.20402E+01  8.98793E-06  1.0E-07
  6.600E+00  3.31362E-03  6.08203E-16  2.17193E+01  9.26723E-06  1.0E-07
  6.700E+00  3.41468E-03  5.99231E-16  2.13989E+01  9.55485E-06  1.0E-07
  6.800E+00  3.51725E-03  5.90276E-16  2.10791E+01  9.85105E-06  1.0E-07
  6.900E+00  3.62133E-03  5.81342E-16  2.07601E+01  1.01561E-05  1.0E-07
  7.000E+00  3.72692E-03  5.72433E-16  2.04420E+01  1.04704E-05  1.0E-07
  7.100E+00  3.83403E-03  5.63554E-16  2.01249E+01  1.07942E-05  1.0E-07
  7.200E+00  3.94265E-03  5.54709E-16  1.98090E+01  1.11277E-05  1.0E-07
  7.300E+00  4.05278E-03  5.45900E-16  1.94944E+01  1.14714E-05  1.0E-07
  7.400E+00  4.16442E-03  5.37132E-16  1.91813E+01  1.18256E-05  1.0E-07
  7.500E+00  4.27757E-03  5.28408E-16  1.88698E+01  1.21905E-05  1.0E-07
  7.600E+00  4.39223E-03  5.19732E-16  1.85600E+01  1.25667E-05  1.0E-07
  7.700E+00  4.50840E-03  5.11107E-16  1.82519E+01  1.29543E-05  1.0E-07
  7.800E+00  4.62608E-03  5.02536E-16  1.79459E+01  1.33539E-05  1.0E-07
  7.900E+00  4.74527E-03  4.94022E-16  1.76419E+01  1.37658E-05  1.0E-07
  8.000E+00  4.86597E-03  4.85569E-16  1.73400E+01  1.41903E-05  1.0E-07
  8.100E+00  4.98817E-03  4.77180E-16  1.70404E+01  1.46279E-05  1.0E-07
  8.200E+00  5.11188E-03  4.68856E-16  1.67432E+01  1.50791E-05  1.0E-07
  8.300E+00  5.23711E-03  4.60602E-16  1.64484E+01  1.55442E-05  1.0E-07
  8.400E+00  5.36383E-03  4.52419E-16  1.61562E+01  1.60237E-05  1.0E-07
  8.500E+00  5.49207E-03  4.44310E-16  1.58666E+01  1.65180E-05  1.0E-07
  8.600E+00  5.62181E-03  4.36278E-16  1.55798E+01  1.70277E-05  1.0E-07
  8.700E+00  5.75306E-03  4.28324E-16  1.52957E+01  1.75531E-05  1.0E-07
  8.800E+00  5.88581E-03  4.20451E-16  1.50146E+01  1.80947E-05  1.0E-07
  8.900E+00  6.02007E-03  4.12661E-16  1.47364E+01  1.86532E-05  1.0E-07
  9.000E+00  6.15583E-03  4.04955E-16  1.44612E+01  1.92289E-05  1.0E-07
  9.100E+00  6.29310E-03  3.97336E-16  1.41891E+01  1.98224E-05  1.0E-07
  9.200E+00  6.43187E-03  3.89805E-16  1.39202E+01  2.04342E-05  1.0E-07
  9.300E+00  6.57214E-03  3.82365E-16  1.36545E+01  2.10650E-05  1.0E-07
  9.400E+00  6.71392E-03  3.75015E-16  1.33920E+01  2.17151E-05  1.0E-07
  9.500E+00  6.85720E-03  3.67758E-16  1.31329E+01  2.23853E-05  1.0E-07
  9.600E+00  7.00198E-03  3.60595E-16  1.28771E+01  2.30760E-05  1.0E-07
  9.700E+00  7.14827E-03  3.53528E-16  1.26247E+01  2.37880E-05  1.0E-07
  9.800E+00  7.29605E-03  3.46556E-16  1.23757E+01  2.45217E-05  1.0E-07
  9.900E+00  7.44534E-03  3.39682E-16  1.21303E+01  2.52779E-05  1.0E-07
  1.000E+01  7.59612E-03  3.32906E-16  1.18883E+01  2.60571E-05  1.0E-07
  1.025E+01  7.97965E-03  3.16399E-16  1.12988E+01  2.81100E-05  1.0E-07
  1.050E+01  8.37255E-03  3.00518E-16  1.07317E+01  3.03211E-05  1.0E-07
  1.075E+01  8.77480E-03  2.85269E-16  1.01872E+01  3.27010E-05  1.0E-07
  1.100E+01  9.18641E-03  2.70655E-16  9.66527E+00  3.52607E-05  1.0E-07
  1.125E+01  9.60736E-03  2.56674E-16  9.16600E+00  3.80112E-05  1.0E-07
  1.150E+01  1.00376E-02  2.43322E-16  8.68920E+00  4.09640E-05  1.0E-07
  1.175E+01  1.04773E-02  2.30593E-16  8.23463E+00  4.41304E-05  1.0E-07
  1.200E+01  1.09262E-02  2.18478E-16  7.80198E+00  4.75219E-05  1.0E-07
  1.225E+01  1.13844E-02  2.06964E-16  7.39082E+00  5.11499E-05  1.0E-07
  1.250E+01  1.18520E-02  1.96039E-16  7.00067E+00  5.50253E-05  1.0E-07
  1.275E+01  1.23288E-02  1.85687E-16  6.63100E+00  5.91588E-05  1.0E-07
  1.300E+01  1.28150E-02  1.75891E-16  6.28120E+00  6.35606E-05  1.0E-07
  1.325E+01  1.33104E-02  1.66635E-16  5.95063E+00  6.82403E-05  1.0E-07
  1.350E+01  1.38150E-02  1.57897E-16  5.63861E+00  7.32065E-05  1.0E-07
  1.375E+01  1.43290E-02  1.49659E-16  5.34443E+00  7.84669E-05  1.0E-07
  1.400E+01  1.48521E-02  1.41900E-16  5.06734E+00  8.40283E-05  1.0E-07
  1.425E+01  1.53845E-02  1.34599E-16  4.80661E+00  8.98962E-05  1.0E-07
  1.450E+01  1.59262E-02  1.27734E-16  4.56147E+00  9.60747E-05  1.0E-07
  1.475E+01  1.64770E-02  1.21284E-16  4.33115E+00  1.02567E-04  1.0E-07
