 #
 # Subroutine ELSEPA. Elastic scattering of electrons and positrons
 #                    by neutral atoms and positive ions
 #
 # Projectile: electron
 # Kinetic energy = 1.10000E+04 eV = 4.04243E+02 a.u.
 #
 # Element:  O,  Z =   8,  atomic weight = 1.59994E+01 g/mol
 #
 # Nuclear model: Fermi distribution
 #                Average radius = 2.69620E-13 cm
 #                Skin thickness = 5.46000E-14 cm
 #
 # Number of electrons =  8
 #
 # Electron density: Read from file z_008.den   
 #                   Number of data points =  681
 #                   Volume integral = 8.00000E+00
 #
 # Furness-McCarthy exchange potential
 #
 # Total elastic cross section = 6.42442E-18 cm**2 = 2.29420E-01 a0**2
 # 1st transport cross section = 9.36497E-20 cm**2 = 3.34429E-03 a0**2
 # 2nd transport cross section = 2.28094E-19 cm**2 = 8.14539E-03 a0**2
 #
 #
 # Differential cross section:                       MU=(1-COS(THETA))/2
 #
 #  THETA        MU          DCS          DCS        Sherman      error
 #  (deg)                 (cm**2/sr)   (a0**2/sr)    function
 #----------------------------------------------------------------------
  0.000E+00  0.00000E+00  4.02209E-16  1.43631E+01  0.00000E+00  1.0E-07
  1.000E-04  7.61557E-13  4.02209E-16  1.43631E+01  9.28538E-11  1.0E-07
  1.250E-04  1.18994E-12  4.02209E-16  1.43631E+01  1.16067E-10  1.0E-07
  1.500E-04  1.71346E-12  4.02209E-16  1.43631E+01  1.39281E-10  1.0E-07
  1.750E-04  2.33225E-12  4.02209E-16  1.43631E+01  1.62494E-10  1.0E-07
  2.000E-04  3.04617E-12  4.02209E-16  1.43631E+01  1.85708E-10  1.0E-07
  2.250E-04  3.85530E-12  4.02209E-16  1.43631E+01  2.08921E-10  1.0E-07
  2.500E-04  4.75964E-12  4.02209E-16  1.43631E+01  2.32134E-10  1.0E-07
  2.750E-04  5.75917E-12  4.02209E-16  1.43631E+01  2.55348E-10  1.0E-07
  3.000E-04  6.85391E-12  4.02209E-16  1.43631E+01  2.78561E-10  1.0E-07
  3.250E-04  8.04379E-12  4.02209E-16  1.43631E+01  3.01775E-10  1.0E-07
  3.500E-04  9.32893E-12  4.02209E-16  1.43631E+01  3.24988E-10  1.0E-07
  3.750E-04  1.07092E-11  4.02209E-16  1.43631E+01  3.48202E-10  1.0E-07
  4.000E-04  1.21847E-11  4.02209E-16  1.43631E+01  3.71415E-10  1.0E-07
  4.250E-04  1.37554E-11  4.02209E-16  1.43631E+01  3.94629E-10  1.0E-07
  4.500E-04  1.54213E-11  4.02209E-16  1.43631E+01  4.17842E-10  1.0E-07
  4.750E-04  1.71823E-11  4.02209E-16  1.43631E+01  4.41055E-10  1.0E-07
  5.000E-04  1.90386E-11  4.02209E-16  1.43631E+01  4.64269E-10  1.0E-07
  5.250E-04  2.09900E-11  4.02209E-16  1.43631E+01  4.87482E-10  1.0E-07
  5.500E-04  2.30367E-11  4.02209E-16  1.43631E+01  5.10696E-10  1.0E-07
  5.750E-04  2.51785E-11  4.02209E-16  1.43631E+01  5.33909E-10  1.0E-07
  6.000E-04  2.74156E-11  4.02209E-16  1.43631E+01  5.57123E-10  1.0E-07
  6.250E-04  2.97478E-11  4.02209E-16  1.43631E+01  5.80336E-10  1.0E-07
  6.500E-04  3.21752E-11  4.02209E-16  1.43631E+01  6.03550E-10  1.0E-07
  6.750E-04  3.46979E-11  4.02209E-16  1.43631E+01  6.26763E-10  1.0E-07
  7.000E-04  3.73157E-11  4.02209E-16  1.43631E+01  6.49976E-10  1.0E-07
  7.250E-04  4.00286E-11  4.02209E-16  1.43631E+01  6.73190E-10  1.0E-07
  7.500E-04  4.28368E-11  4.02209E-16  1.43631E+01  6.96403E-10  1.0E-07
  7.750E-04  4.57402E-11  4.02209E-16  1.43631E+01  7.19617E-10  1.0E-07
  8.000E-04  4.87388E-11  4.02209E-16  1.43631E+01  7.42830E-10  1.0E-07
  8.250E-04  5.18325E-11  4.02209E-16  1.43631E+01  7.66044E-10  1.0E-07
  8.500E-04  5.50215E-11  4.02209E-16  1.43631E+01  7.89257E-10  1.0E-07
  8.750E-04  5.83057E-11  4.02209E-16  1.43631E+01  8.12471E-10  1.0E-07
  9.000E-04  6.16850E-11  4.02209E-16  1.43631E+01  8.35684E-10  1.0E-07
  9.250E-04  6.51595E-11  4.02209E-16  1.43631E+01  8.58897E-10  1.0E-07
  9.500E-04  6.87293E-11  4.02209E-16  1.43631E+01  8.82111E-10  1.0E-07
  9.750E-04  7.23943E-11  4.02209E-16  1.43631E+01  9.05324E-10  1.0E-07
  1.000E-03  7.61544E-11  4.02209E-16  1.43631E+01  9.28538E-10  1.0E-07
  1.250E-03  1.18991E-10  4.02209E-16  1.43631E+01  1.16067E-09  1.0E-07
  1.500E-03  1.71347E-10  4.02209E-16  1.43631E+01  1.39281E-09  1.0E-07
  1.750E-03  2.33223E-10  4.02209E-16  1.43631E+01  1.62494E-09  1.0E-07
  2.000E-03  3.04617E-10  4.02209E-16  1.43631E+01  1.85708E-09  1.0E-07
  2.250E-03  3.85531E-10  4.02209E-16  1.43631E+01  2.08921E-09  1.0E-07
  2.500E-03  4.75965E-10  4.02209E-16  1.43631E+01  2.32134E-09  1.0E-07
  2.750E-03  5.75917E-10  4.02209E-16  1.43631E+01  2.55348E-09  1.0E-07
  3.000E-03  6.85389E-10  4.02208E-16  1.43631E+01  2.78561E-09  1.0E-07
  3.250E-03  8.04380E-10  4.02208E-16  1.43631E+01  3.01775E-09  1.0E-07
  3.500E-03  9.32891E-10  4.02208E-16  1.43631E+01  3.24988E-09  1.0E-07
  3.750E-03  1.07092E-09  4.02208E-16  1.43631E+01  3.48202E-09  1.0E-07
  4.000E-03  1.21847E-09  4.02208E-16  1.43631E+01  3.71415E-09  1.0E-07
  4.250E-03  1.37554E-09  4.02208E-16  1.43631E+01  3.94629E-09  1.0E-07
  4.500E-03  1.54213E-09  4.02208E-16  1.43631E+01  4.17842E-09  1.0E-07
  4.750E-03  1.71823E-09  4.02208E-16  1.43631E+01  4.41056E-09  1.0E-07
  5.000E-03  1.90386E-09  4.02208E-16  1.43631E+01  4.64269E-09  1.0E-07
  5.250E-03  2.09900E-09  4.02208E-16  1.43631E+01  4.87483E-09  1.0E-07
  5.500E-03  2.30367E-09  4.02207E-16  1.43631E+01  5.10696E-09  1.0E-07
  5.750E-03  2.51785E-09  4.02207E-16  1.43631E+01  5.33910E-09  1.0E-07
  6.000E-03  2.74156E-09  4.02207E-16  1.43631E+01  5.57123E-09  1.0E-07
  6.250E-03  2.97478E-09  4.02207E-16  1.43631E+01  5.80337E-09  1.0E-07
  6.500E-03  3.21752E-09  4.02207E-16  1.43631E+01  6.03550E-09  1.0E-07
  6.750E-03  3.46978E-09  4.02207E-16  1.43631E+01  6.26764E-09  1.0E-07
  7.000E-03  3.73156E-09  4.02207E-16  1.43631E+01  6.49978E-09  1.0E-07
  7.250E-03  4.00286E-09  4.02207E-16  1.43631E+01  6.73191E-09  1.0E-07
  7.500E-03  4.28368E-09  4.02206E-16  1.43630E+01  6.96405E-09  1.0E-07
  7.750E-03  4.57402E-09  4.02206E-16  1.43630E+01  7.19618E-09  1.0E-07
  8.000E-03  4.87388E-09  4.02206E-16  1.43630E+01  7.42832E-09  1.0E-07
  8.250E-03  5.18326E-09  4.02206E-16  1.43630E+01  7.66046E-09  1.0E-07
  8.500E-03  5.50215E-09  4.02206E-16  1.43630E+01  7.89259E-09  1.0E-07
  8.750E-03  5.83057E-09  4.02205E-16  1.43630E+01  8.12473E-09  1.0E-07
  9.000E-03  6.16850E-09  4.02205E-16  1.43630E+01  8.35686E-09  1.0E-07
  9.250E-03  6.51596E-09  4.02205E-16  1.43630E+01  8.58900E-09  1.0E-07
  9.500E-03  6.87293E-09  4.02205E-16  1.43630E+01  8.82114E-09  1.0E-07
  9.750E-03  7.23942E-09  4.02205E-16  1.43630E+01  9.05327E-09  1.0E-07
  1.000E-02  7.61544E-09  4.02204E-16  1.43630E+01  9.28541E-09  1.0E-07
  1.250E-02  1.18991E-08  4.02202E-16  1.43629E+01  1.16068E-08  1.0E-07
  1.500E-02  1.71347E-08  4.02199E-16  1.43628E+01  1.39282E-08  1.0E-07
  1.750E-02  2.33223E-08  4.02195E-16  1.43627E+01  1.62496E-08  1.0E-07
  2.000E-02  3.04617E-08  4.02191E-16  1.43625E+01  1.85710E-08  1.0E-07
  2.250E-02  3.85531E-08  4.02186E-16  1.43623E+01  2.08925E-08  1.0E-07
  2.500E-02  4.75965E-08  4.02181E-16  1.43621E+01  2.32140E-08  1.0E-07
  2.750E-02  5.75917E-08  4.02175E-16  1.43619E+01  2.55355E-08  1.0E-07
  3.000E-02  6.85389E-08  4.02169E-16  1.43617E+01  2.78570E-08  1.0E-07
  3.250E-02  8.04380E-08  4.02162E-16  1.43615E+01  3.01786E-08  1.0E-07
  3.500E-02  9.32891E-08  4.02154E-16  1.43612E+01  3.25002E-08  1.0E-07
  3.750E-02  1.07092E-07  4.02146E-16  1.43609E+01  3.48219E-08  1.0E-07
  4.000E-02  1.21847E-07  4.02138E-16  1.43606E+01  3.71436E-08  1.0E-07
  4.250E-02  1.37554E-07  4.02129E-16  1.43603E+01  3.94654E-08  1.0E-07
  4.500E-02  1.54213E-07  4.02119E-16  1.43599E+01  4.17872E-08  1.0E-07
  4.750E-02  1.71823E-07  4.02109E-16  1.43596E+01  4.41091E-08  1.0E-07
  5.000E-02  1.90386E-07  4.02098E-16  1.43592E+01  4.64310E-08  1.0E-07
  5.250E-02  2.09900E-07  4.02086E-16  1.43588E+01  4.87530E-08  1.0E-07
  5.500E-02  2.30367E-07  4.02074E-16  1.43583E+01  5.10751E-08  1.0E-07
  5.750E-02  2.51785E-07  4.02062E-16  1.43579E+01  5.33972E-08  1.0E-07
  6.000E-02  2.74156E-07  4.02049E-16  1.43574E+01  5.57194E-08  1.0E-07
  6.250E-02  2.97478E-07  4.02035E-16  1.43569E+01  5.80417E-08  1.0E-07
  6.500E-02  3.21752E-07  4.02021E-16  1.43564E+01  6.03640E-08  1.0E-07
  6.750E-02  3.46978E-07  4.02006E-16  1.43559E+01  6.26865E-08  1.0E-07
  7.000E-02  3.73156E-07  4.01991E-16  1.43554E+01  6.50090E-08  1.0E-07
  7.250E-02  4.00286E-07  4.01975E-16  1.43548E+01  6.73316E-08  1.0E-07
  7.500E-02  4.28368E-07  4.01959E-16  1.43542E+01  6.96543E-08  1.0E-07
  7.750E-02  4.57402E-07  4.01942E-16  1.43536E+01  7.19770E-08  1.0E-07
  8.000E-02  4.87388E-07  4.01925E-16  1.43530E+01  7.42999E-08  1.0E-07
  8.250E-02  5.18325E-07  4.01907E-16  1.43523E+01  7.66229E-08  1.0E-07
  8.500E-02  5.50215E-07  4.01888E-16  1.43517E+01  7.89460E-08  1.0E-07
  8.750E-02  5.83057E-07  4.01869E-16  1.43510E+01  8.12692E-08  1.0E-07
  9.000E-02  6.16850E-07  4.01849E-16  1.43503E+01  8.35925E-08  1.0E-07
  9.250E-02  6.51596E-07  4.01829E-16  1.43496E+01  8.59159E-08  1.0E-07
  9.500E-02  6.87293E-07  4.01808E-16  1.43488E+01  8.82394E-08  1.0E-07
  9.750E-02  7.23942E-07  4.01787E-16  1.43481E+01  9.05630E-08  1.0E-07
  1.000E-01  7.61543E-07  4.01765E-16  1.43473E+01  9.28868E-08  1.0E-07
  1.250E-01  1.18991E-06  4.01515E-16  1.43384E+01  1.16132E-07  1.0E-07
  1.500E-01  1.71347E-06  4.01211E-16  1.43275E+01  1.39392E-07  1.0E-07
  1.750E-01  2.33223E-06  4.00851E-16  1.43147E+01  1.62671E-07  1.0E-07
  2.000E-01  3.04617E-06  4.00437E-16  1.42999E+01  1.85972E-07  1.0E-07
  2.250E-01  3.85531E-06  3.99969E-16  1.42831E+01  2.09297E-07  1.0E-07
  2.500E-01  4.75964E-06  3.99446E-16  1.42645E+01  2.32650E-07  1.0E-07
  2.750E-01  5.75916E-06  3.98869E-16  1.42439E+01  2.56034E-07  1.0E-07
  3.000E-01  6.85388E-06  3.98239E-16  1.42214E+01  2.79452E-07  1.0E-07
  3.250E-01  8.04378E-06  3.97555E-16  1.41970E+01  3.02906E-07  1.0E-07
  3.500E-01  9.32888E-06  3.96819E-16  1.41707E+01  3.26401E-07  1.0E-07
  3.750E-01  1.07092E-05  3.96030E-16  1.41425E+01  3.49939E-07  1.0E-07
  4.000E-01  1.21846E-05  3.95190E-16  1.41125E+01  3.73522E-07  1.0E-07
  4.250E-01  1.37553E-05  3.94298E-16  1.40806E+01  3.97155E-07  1.0E-07
  4.500E-01  1.54212E-05  3.93356E-16  1.40470E+01  4.20840E-07  1.0E-07
  4.750E-01  1.71822E-05  3.92363E-16  1.40115E+01  4.44580E-07  1.0E-07
  5.000E-01  1.90385E-05  3.91320E-16  1.39743E+01  4.68377E-07  1.0E-07
  5.250E-01  2.09899E-05  3.90228E-16  1.39353E+01  4.92236E-07  1.0E-07
  5.500E-01  2.30365E-05  3.89088E-16  1.38946E+01  5.16159E-07  1.0E-07
  5.750E-01  2.51783E-05  3.87900E-16  1.38521E+01  5.40148E-07  1.0E-07
  6.000E-01  2.74153E-05  3.86664E-16  1.38080E+01  5.64207E-07  1.0E-07
  6.250E-01  2.97475E-05  3.85383E-16  1.37623E+01  5.88338E-07  1.0E-07
  6.500E-01  3.21749E-05  3.84055E-16  1.37149E+01  6.12545E-07  1.0E-07
  6.750E-01  3.46974E-05  3.82682E-16  1.36658E+01  6.36831E-07  1.0E-07
  7.000E-01  3.73152E-05  3.81266E-16  1.36152E+01  6.61197E-07  1.0E-07
  7.250E-01  4.00281E-05  3.79805E-16  1.35631E+01  6.85647E-07  1.0E-07
  7.500E-01  4.28362E-05  3.78302E-16  1.35094E+01  7.10185E-07  1.0E-07
  7.750E-01  4.57395E-05  3.76757E-16  1.34542E+01  7.34811E-07  1.0E-07
  8.000E-01  4.87380E-05  3.75171E-16  1.33976E+01  7.59530E-07  1.0E-07
  8.250E-01  5.18317E-05  3.73545E-16  1.33395E+01  7.84344E-07  1.0E-07
  8.500E-01  5.50205E-05  3.71880E-16  1.32801E+01  8.09255E-07  1.0E-07
  8.750E-01  5.83045E-05  3.70176E-16  1.32192E+01  8.34267E-07  1.0E-07
  9.000E-01  6.16838E-05  3.68434E-16  1.31570E+01  8.59382E-07  1.0E-07
  9.250E-01  6.51582E-05  3.66656E-16  1.30935E+01  8.84602E-07  1.0E-07
  9.500E-01  6.87277E-05  3.64842E-16  1.30288E+01  9.09931E-07  1.0E-07
  9.750E-01  7.23925E-05  3.62993E-16  1.29627E+01  9.35370E-07  1.0E-07
  1.000E+00  7.61524E-05  3.61111E-16  1.28955E+01  9.60923E-07  1.0E-07
  1.100E+00  9.21439E-05  3.53260E-16  1.26151E+01  1.06432E-06  1.0E-07
  1.200E+00  1.09658E-04  3.44943E-16  1.23181E+01  1.16972E-06  1.0E-07
  1.300E+00  1.28695E-04  3.36221E-16  1.20067E+01  1.27727E-06  1.0E-07
  1.400E+00  1.49255E-04  3.27157E-16  1.16830E+01  1.38712E-06  1.0E-07
  1.500E+00  1.71338E-04  3.17810E-16  1.13492E+01  1.49939E-06  1.0E-07
  1.600E+00  1.94942E-04  3.08242E-16  1.10075E+01  1.61420E-06  1.0E-07
  1.700E+00  2.20070E-04  2.98508E-16  1.06599E+01  1.73166E-06  1.0E-07
  1.800E+00  2.46720E-04  2.88663E-16  1.03084E+01  1.85187E-06  1.0E-07
  1.900E+00  2.74892E-04  2.78759E-16  9.95467E+00  1.97490E-06  1.0E-07
  2.000E+00  3.04586E-04  2.68843E-16  9.60057E+00  2.10084E-06  1.0E-07
  2.100E+00  3.35803E-04  2.58960E-16  9.24762E+00  2.22974E-06  1.0E-07
  2.200E+00  3.68542E-04  2.49149E-16  8.89726E+00  2.36165E-06  1.0E-07
  2.300E+00  4.02802E-04  2.39446E-16  8.55077E+00  2.49662E-06  1.0E-07
  2.400E+00  4.38585E-04  2.29884E-16  8.20931E+00  2.63465E-06  1.0E-07
  2.500E+00  4.75889E-04  2.20491E-16  7.87388E+00  2.77576E-06  1.0E-07
  2.600E+00  5.14715E-04  2.11292E-16  7.54537E+00  2.91994E-06  1.0E-07
  2.700E+00  5.55063E-04  2.02307E-16  7.22451E+00  3.06717E-06  1.0E-07
  2.800E+00  5.96931E-04  1.93554E-16  6.91192E+00  3.21741E-06  1.0E-07
  2.900E+00  6.40321E-04  1.85046E-16  6.60812E+00  3.37062E-06  1.0E-07
  3.000E+00  6.85233E-04  1.76796E-16  6.31351E+00  3.52672E-06  1.0E-07
  3.100E+00  7.31665E-04  1.68812E-16  6.02838E+00  3.68564E-06  1.0E-07
  3.200E+00  7.79618E-04  1.61099E-16  5.75295E+00  3.84728E-06  1.0E-07
  3.300E+00  8.29092E-04  1.53662E-16  5.48736E+00  4.01152E-06  1.0E-07
  3.400E+00  8.80086E-04  1.46502E-16  5.23167E+00  4.17824E-06  1.0E-07
  3.500E+00  9.32601E-04  1.39618E-16  4.98586E+00  4.34729E-06  1.0E-07
  3.600E+00  9.86636E-04  1.33011E-16  4.74989E+00  4.51853E-06  1.0E-07
  3.700E+00  1.04219E-03  1.26675E-16  4.52365E+00  4.69176E-06  1.0E-07
  3.800E+00  1.09927E-03  1.20608E-16  4.30699E+00  4.86681E-06  1.0E-07
  3.900E+00  1.15786E-03  1.14804E-16  4.09973E+00  5.04346E-06  1.0E-07
  4.000E+00  1.21797E-03  1.09257E-16  3.90165E+00  5.22151E-06  1.0E-07
  4.100E+00  1.27961E-03  1.03961E-16  3.71252E+00  5.40072E-06  1.0E-07
  4.200E+00  1.34276E-03  9.89085E-17  3.53209E+00  5.58083E-06  1.0E-07
  4.300E+00  1.40743E-03  9.40917E-17  3.36008E+00  5.76159E-06  1.0E-07
  4.400E+00  1.47362E-03  8.95030E-17  3.19621E+00  5.94272E-06  1.0E-07
  4.500E+00  1.54133E-03  8.51342E-17  3.04020E+00  6.12393E-06  1.0E-07
  4.600E+00  1.61056E-03  8.09771E-17  2.89175E+00  6.30491E-06  1.0E-07
  4.700E+00  1.68131E-03  7.70236E-17  2.75056E+00  6.48535E-06  1.0E-07
  4.800E+00  1.75357E-03  7.32653E-17  2.61635E+00  6.66491E-06  1.0E-07
  4.900E+00  1.82735E-03  6.96941E-17  2.48882E+00  6.84326E-06  1.0E-07
  5.000E+00  1.90265E-03  6.63018E-17  2.36768E+00  7.02005E-06  1.0E-07
  5.100E+00  1.97947E-03  6.30806E-17  2.25265E+00  7.19491E-06  1.0E-07
  5.200E+00  2.05780E-03  6.00226E-17  2.14345E+00  7.36747E-06  1.0E-07
  5.300E+00  2.13765E-03  5.71202E-17  2.03980E+00  7.53735E-06  1.0E-07
  5.400E+00  2.21902E-03  5.43662E-17  1.94145E+00  7.70416E-06  1.0E-07
  5.500E+00  2.30190E-03  5.17533E-17  1.84814E+00  7.86750E-06  1.0E-07
  5.600E+00  2.38630E-03  4.92746E-17  1.75963E+00  8.02697E-06  1.0E-07
  5.700E+00  2.47222E-03  4.69235E-17  1.67567E+00  8.18214E-06  1.0E-07
  5.800E+00  2.55965E-03  4.46937E-17  1.59604E+00  8.33261E-06  1.0E-07
  5.900E+00  2.64859E-03  4.25789E-17  1.52052E+00  8.47795E-06  1.0E-07
  6.000E+00  2.73905E-03  4.05733E-17  1.44890E+00  8.61774E-06  1.0E-07
  6.100E+00  2.83103E-03  3.86712E-17  1.38097E+00  8.75152E-06  1.0E-07
  6.200E+00  2.92452E-03  3.68673E-17  1.31655E+00  8.87888E-06  1.0E-07
  6.300E+00  3.01952E-03  3.51564E-17  1.25546E+00  8.99937E-06  1.0E-07
  6.400E+00  3.11604E-03  3.35337E-17  1.19751E+00  9.11254E-06  1.0E-07
  6.500E+00  3.21407E-03  3.19944E-17  1.14254E+00  9.21797E-06  1.0E-07
  6.600E+00  3.31362E-03  3.05342E-17  1.09040E+00  9.31520E-06  1.0E-07
  6.700E+00  3.41468E-03  2.91489E-17  1.04093E+00  9.40380E-06  1.0E-07
  6.800E+00  3.51725E-03  2.78344E-17  9.93983E-01  9.48333E-06  1.0E-07
  6.900E+00  3.62133E-03  2.65869E-17  9.49435E-01  9.55335E-06  1.0E-07
  7.000E+00  3.72692E-03  2.54029E-17  9.07153E-01  9.61343E-06  1.0E-07
  7.100E+00  3.83403E-03  2.42789E-17  8.67015E-01  9.66313E-06  1.0E-07
  7.200E+00  3.94265E-03  2.32117E-17  8.28906E-01  9.70204E-06  1.0E-07
  7.300E+00  4.05278E-03  2.21983E-17  7.92715E-01  9.72972E-06  1.0E-07
  7.400E+00  4.16442E-03  2.12357E-17  7.58341E-01  9.74576E-06  1.0E-07
  7.500E+00  4.27757E-03  2.03213E-17  7.25686E-01  9.74973E-06  1.0E-07
  7.600E+00  4.39223E-03  1.94523E-17  6.94655E-01  9.74124E-06  1.0E-07
  7.700E+00  4.50840E-03  1.86265E-17  6.65163E-01  9.71988E-06  1.0E-07
  7.800E+00  4.62608E-03  1.78414E-17  6.37127E-01  9.68525E-06  1.0E-07
  7.900E+00  4.74527E-03  1.70949E-17  6.10468E-01  9.63697E-06  1.0E-07
  8.000E+00  4.86597E-03  1.63848E-17  5.85113E-01  9.57465E-06  1.0E-07
  8.100E+00  4.98817E-03  1.57094E-17  5.60992E-01  9.49792E-06  1.0E-07
  8.200E+00  5.11188E-03  1.50666E-17  5.38038E-01  9.40641E-06  1.0E-07
  8.300E+00  5.23711E-03  1.44548E-17  5.16191E-01  9.29978E-06  1.0E-07
  8.400E+00  5.36383E-03  1.38723E-17  4.95390E-01  9.17768E-06  1.0E-07
  8.500E+00  5.49207E-03  1.33176E-17  4.75581E-01  9.03977E-06  1.0E-07
  8.600E+00  5.62181E-03  1.27892E-17  4.56712E-01  8.88573E-06  1.0E-07
  8.700E+00  5.75306E-03  1.22857E-17  4.38732E-01  8.71523E-06  1.0E-07
  8.800E+00  5.88581E-03  1.18059E-17  4.21595E-01  8.52797E-06  1.0E-07
  8.900E+00  6.02007E-03  1.13484E-17  4.05257E-01  8.32363E-06  1.0E-07
  9.000E+00  6.15583E-03  1.09121E-17  3.89676E-01  8.10194E-06  1.0E-07
  9.100E+00  6.29310E-03  1.04959E-17  3.74814E-01  7.86260E-06  1.0E-07
  9.200E+00  6.43187E-03  1.00987E-17  3.60632E-01  7.60534E-06  1.0E-07
  9.300E+00  6.57214E-03  9.71966E-18  3.47095E-01  7.32990E-06  1.0E-07
  9.400E+00  6.71392E-03  9.35776E-18  3.34172E-01  7.03601E-06  1.0E-07
  9.500E+00  6.85720E-03  9.01213E-18  3.21829E-01  6.72344E-06  1.0E-07
  9.600E+00  7.00198E-03  8.68195E-18  3.10038E-01  6.39195E-06  1.0E-07
  9.700E+00  7.14827E-03  8.36643E-18  2.98771E-01  6.04132E-06  1.0E-07
  9.800E+00  7.29605E-03  8.06483E-18  2.88000E-01  5.67133E-06  1.0E-07
  9.900E+00  7.44534E-03  7.77646E-18  2.77703E-01  5.28178E-06  1.0E-07
  1.000E+01  7.59612E-03  7.50066E-18  2.67853E-01  4.87247E-06  1.0E-07
  1.025E+01  7.97965E-03  6.86208E-18  2.45049E-01  3.76152E-06  1.0E-07
  1.050E+01  8.37255E-03  6.28934E-18  2.24596E-01  2.52316E-06  1.0E-07
  1.075E+01  8.77480E-03  5.77469E-18  2.06218E-01  0.00000E+00  1.0E-07
  1.100E+01  9.18641E-03  5.31141E-18  1.89674E-01  0.00000E+00  1.0E-07
  1.125E+01  9.60736E-03  4.89360E-18  1.74754E-01  0.00000E+00  1.0E-07
  1.150E+01  1.00376E-02  4.51614E-18  1.61274E-01 -3.74964E-06  1.0E-07
  1.175E+01  1.04773E-02  4.17453E-18  1.49075E-01 -5.65650E-06  1.0E-07
  1.200E+01  1.09262E-02  3.86481E-18  1.38015E-01 -7.70162E-06  1.0E-07
  1.225E+01  1.13844E-02  3.58355E-18  1.27971E-01 -9.88611E-06  1.0E-07
  1.250E+01  1.18520E-02  3.32768E-18  1.18834E-01 -1.22110E-05  1.0E-07
  1.275E+01  1.23288E-02  3.09453E-18  1.10508E-01 -1.46770E-05  1.0E-07
  1.300E+01  1.28150E-02  2.88175E-18  1.02909E-01 -1.72848E-05  1.0E-07
  1.325E+01  1.33104E-02  2.68724E-18  9.59631E-02 -2.00349E-05  1.0E-07
  1.350E+01  1.38150E-02  2.50916E-18  8.96037E-02 -2.29281E-05  1.0E-07
  1.375E+01  1.43290E-02  2.34587E-18  8.37725E-02 -2.59648E-05  1.0E-07
  1.400E+01  1.48521E-02  2.19592E-18  7.84178E-02 -2.91456E-05  1.0E-07
  1.425E+01  1.53845E-02  2.05803E-18  7.34935E-02 -3.24708E-05  1.0E-07
  1.450E+01  1.59262E-02  1.93104E-18  6.89585E-02 -3.59408E-05  1.0E-07
  1.475E+01  1.64770E-02  1.81392E-18  6.47763E-02 -3.95560E-05  1.0E-07
  1.500E+01  1.70371E-02  1.70577E-18  6.09143E-02 -4.33169E-05  1.0E-07
  1.525E+01  1.76063E-02  1.60577E-18  5.73431E-02 -4.72239E-05  1.0E-07
  1.550E+01  1.81848E-02  1.51318E-18  5.40368E-02 -5.12776E-05  1.0E-07
