 #
 # Subroutine ELSEPA. Elastic scattering of electrons and positrons
 #                    by neutral atoms and positive ions
 #
 # Projectile: electron
 # Kinetic energy = 1.20000E+01 eV = 4.40992E-01 a.u.
 #
 #  ***  WARNING: Energy is too low.
 #                The reliability of the results is questionable.
 #
 # Element:  O,  Z =   8,  atomic weight = 1.59994E+01 g/mol
 #
 # Nuclear model: Fermi distribution
 #                Average radius = 2.69620E-13 cm
 #                Skin thickness = 5.46000E-14 cm
 #
 # Number of electrons =  8
 #
 # Electron density: Read from file z_008.den   
 #                   Number of data points =  681
 #                   Volume integral = 8.00000E+00
 #
 # Furness-McCarthy exchange potential
 #
 # Total elastic cross section = 8.27211E-16 cm**2 = 2.95402E+01 a0**2
 # 1st transport cross section = 5.37745E-16 cm**2 = 1.92032E+01 a0**2
 # 2nd transport cross section = 6.68465E-16 cm**2 = 2.38713E+01 a0**2
 #
 #
 # Differential cross section:                       MU=(1-COS(THETA))/2
 #
 #  THETA        MU          DCS          DCS        Sherman      error
 #  (deg)                 (cm**2/sr)   (a0**2/sr)    function
 #----------------------------------------------------------------------
  0.000E+00  0.00000E+00  1.71226E-16  6.11459E+00  0.00000E+00  1.0E-07
  1.000E-04  7.61557E-13  1.71226E-16  6.11459E+00  4.40623E-10  1.0E-07
  1.250E-04  1.18994E-12  1.71226E-16  6.11459E+00  5.50779E-10  1.0E-07
  1.500E-04  1.71346E-12  1.71226E-16  6.11459E+00  6.60935E-10  1.0E-07
  1.750E-04  2.33225E-12  1.71226E-16  6.11459E+00  7.71090E-10  1.0E-07
  2.000E-04  3.04617E-12  1.71226E-16  6.11459E+00  8.81246E-10  1.0E-07
  2.250E-04  3.85530E-12  1.71226E-16  6.11459E+00  9.91402E-10  1.0E-07
  2.500E-04  4.75964E-12  1.71226E-16  6.11459E+00  1.10156E-09  1.0E-07
  2.750E-04  5.75917E-12  1.71226E-16  6.11459E+00  1.21171E-09  1.0E-07
  3.000E-04  6.85391E-12  1.71226E-16  6.11459E+00  1.32187E-09  1.0E-07
  3.250E-04  8.04379E-12  1.71226E-16  6.11459E+00  1.43203E-09  1.0E-07
  3.500E-04  9.32893E-12  1.71226E-16  6.11459E+00  1.54218E-09  1.0E-07
  3.750E-04  1.07092E-11  1.71226E-16  6.11459E+00  1.65234E-09  1.0E-07
  4.000E-04  1.21847E-11  1.71226E-16  6.11459E+00  1.76249E-09  1.0E-07
  4.250E-04  1.37554E-11  1.71226E-16  6.11459E+00  1.87265E-09  1.0E-07
  4.500E-04  1.54213E-11  1.71226E-16  6.11459E+00  1.98280E-09  1.0E-07
  4.750E-04  1.71823E-11  1.71226E-16  6.11459E+00  2.09296E-09  1.0E-07
  5.000E-04  1.90386E-11  1.71226E-16  6.11459E+00  2.20312E-09  1.0E-07
  5.250E-04  2.09900E-11  1.71226E-16  6.11459E+00  2.31327E-09  1.0E-07
  5.500E-04  2.30367E-11  1.71226E-16  6.11459E+00  2.42343E-09  1.0E-07
  5.750E-04  2.51785E-11  1.71226E-16  6.11459E+00  2.53358E-09  1.0E-07
  6.000E-04  2.74156E-11  1.71226E-16  6.11459E+00  2.64374E-09  1.0E-07
  6.250E-04  2.97478E-11  1.71226E-16  6.11459E+00  2.75389E-09  1.0E-07
  6.500E-04  3.21752E-11  1.71226E-16  6.11459E+00  2.86405E-09  1.0E-07
  6.750E-04  3.46979E-11  1.71226E-16  6.11459E+00  2.97421E-09  1.0E-07
  7.000E-04  3.73157E-11  1.71226E-16  6.11459E+00  3.08436E-09  1.0E-07
  7.250E-04  4.00286E-11  1.71226E-16  6.11459E+00  3.19452E-09  1.0E-07
  7.500E-04  4.28368E-11  1.71226E-16  6.11459E+00  3.30467E-09  1.0E-07
  7.750E-04  4.57402E-11  1.71226E-16  6.11459E+00  3.41483E-09  1.0E-07
  8.000E-04  4.87388E-11  1.71226E-16  6.11459E+00  3.52499E-09  1.0E-07
  8.250E-04  5.18325E-11  1.71226E-16  6.11459E+00  3.63514E-09  1.0E-07
  8.500E-04  5.50215E-11  1.71226E-16  6.11459E+00  3.74530E-09  1.0E-07
  8.750E-04  5.83057E-11  1.71226E-16  6.11459E+00  3.85545E-09  1.0E-07
  9.000E-04  6.16850E-11  1.71226E-16  6.11459E+00  3.96561E-09  1.0E-07
  9.250E-04  6.51595E-11  1.71226E-16  6.11459E+00  4.07576E-09  1.0E-07
  9.500E-04  6.87293E-11  1.71226E-16  6.11459E+00  4.18592E-09  1.0E-07
  9.750E-04  7.23943E-11  1.71226E-16  6.11459E+00  4.29608E-09  1.0E-07
  1.000E-03  7.61544E-11  1.71226E-16  6.11459E+00  4.40623E-09  1.0E-07
  1.250E-03  1.18991E-10  1.71226E-16  6.11459E+00  5.50779E-09  1.0E-07
  1.500E-03  1.71347E-10  1.71226E-16  6.11459E+00  6.60935E-09  1.0E-07
  1.750E-03  2.33223E-10  1.71226E-16  6.11459E+00  7.71090E-09  1.0E-07
  2.000E-03  3.04617E-10  1.71226E-16  6.11459E+00  8.81246E-09  1.0E-07
  2.250E-03  3.85531E-10  1.71226E-16  6.11459E+00  9.91402E-09  1.0E-07
  2.500E-03  4.75965E-10  1.71226E-16  6.11459E+00  1.10156E-08  1.0E-07
  2.750E-03  5.75917E-10  1.71226E-16  6.11459E+00  1.21171E-08  1.0E-07
  3.000E-03  6.85389E-10  1.71226E-16  6.11459E+00  1.32187E-08  1.0E-07
  3.250E-03  8.04380E-10  1.71226E-16  6.11459E+00  1.43203E-08  1.0E-07
  3.500E-03  9.32891E-10  1.71226E-16  6.11459E+00  1.54218E-08  1.0E-07
  3.750E-03  1.07092E-09  1.71226E-16  6.11459E+00  1.65234E-08  1.0E-07
  4.000E-03  1.21847E-09  1.71226E-16  6.11459E+00  1.76249E-08  1.0E-07
  4.250E-03  1.37554E-09  1.71226E-16  6.11459E+00  1.87265E-08  1.0E-07
  4.500E-03  1.54213E-09  1.71226E-16  6.11459E+00  1.98280E-08  1.0E-07
  4.750E-03  1.71823E-09  1.71226E-16  6.11459E+00  2.09296E-08  1.0E-07
  5.000E-03  1.90386E-09  1.71226E-16  6.11459E+00  2.20312E-08  1.0E-07
  5.250E-03  2.09900E-09  1.71226E-16  6.11459E+00  2.31327E-08  1.0E-07
  5.500E-03  2.30367E-09  1.71226E-16  6.11459E+00  2.42343E-08  1.0E-07
  5.750E-03  2.51785E-09  1.71226E-16  6.11459E+00  2.53358E-08  1.0E-07
  6.000E-03  2.74156E-09  1.71226E-16  6.11459E+00  2.64374E-08  1.0E-07
  6.250E-03  2.97478E-09  1.71226E-16  6.11459E+00  2.75389E-08  1.0E-07
  6.500E-03  3.21752E-09  1.71226E-16  6.11459E+00  2.86405E-08  1.0E-07
  6.750E-03  3.46978E-09  1.71226E-16  6.11459E+00  2.97421E-08  1.0E-07
  7.000E-03  3.73156E-09  1.71226E-16  6.11459E+00  3.08436E-08  1.0E-07
  7.250E-03  4.00286E-09  1.71226E-16  6.11459E+00  3.19452E-08  1.0E-07
  7.500E-03  4.28368E-09  1.71226E-16  6.11459E+00  3.30467E-08  1.0E-07
  7.750E-03  4.57402E-09  1.71226E-16  6.11459E+00  3.41483E-08  1.0E-07
  8.000E-03  4.87388E-09  1.71226E-16  6.11459E+00  3.52499E-08  1.0E-07
  8.250E-03  5.18326E-09  1.71226E-16  6.11459E+00  3.63514E-08  1.0E-07
  8.500E-03  5.50215E-09  1.71226E-16  6.11459E+00  3.74530E-08  1.0E-07
  8.750E-03  5.83057E-09  1.71226E-16  6.11459E+00  3.85545E-08  1.0E-07
  9.000E-03  6.16850E-09  1.71226E-16  6.11459E+00  3.96561E-08  1.0E-07
  9.250E-03  6.51596E-09  1.71226E-16  6.11459E+00  4.07576E-08  1.0E-07
  9.500E-03  6.87293E-09  1.71226E-16  6.11459E+00  4.18592E-08  1.0E-07
  9.750E-03  7.23942E-09  1.71226E-16  6.11459E+00  4.29608E-08  1.0E-07
  1.000E-02  7.61544E-09  1.71226E-16  6.11459E+00  4.40623E-08  1.0E-07
  1.250E-02  1.18991E-08  1.71226E-16  6.11459E+00  5.50779E-08  1.0E-07
  1.500E-02  1.71347E-08  1.71226E-16  6.11459E+00  6.60935E-08  1.0E-07
  1.750E-02  2.33223E-08  1.71226E-16  6.11459E+00  7.71091E-08  1.0E-07
  2.000E-02  3.04617E-08  1.71226E-16  6.11459E+00  8.81246E-08  1.0E-07
  2.250E-02  3.85531E-08  1.71226E-16  6.11459E+00  9.91402E-08  1.0E-07
  2.500E-02  4.75965E-08  1.71226E-16  6.11459E+00  1.10156E-07  1.0E-07
  2.750E-02  5.75917E-08  1.71226E-16  6.11459E+00  1.21171E-07  1.0E-07
  3.000E-02  6.85389E-08  1.71226E-16  6.11459E+00  1.32187E-07  1.0E-07
  3.250E-02  8.04380E-08  1.71226E-16  6.11459E+00  1.43203E-07  1.0E-07
  3.500E-02  9.32891E-08  1.71226E-16  6.11459E+00  1.54218E-07  1.0E-07
  3.750E-02  1.07092E-07  1.71226E-16  6.11459E+00  1.65234E-07  1.0E-07
  4.000E-02  1.21847E-07  1.71226E-16  6.11459E+00  1.76249E-07  1.0E-07
  4.250E-02  1.37554E-07  1.71226E-16  6.11459E+00  1.87265E-07  1.0E-07
  4.500E-02  1.54213E-07  1.71226E-16  6.11459E+00  1.98281E-07  1.0E-07
  4.750E-02  1.71823E-07  1.71226E-16  6.11459E+00  2.09296E-07  1.0E-07
  5.000E-02  1.90386E-07  1.71226E-16  6.11459E+00  2.20312E-07  1.0E-07
  5.250E-02  2.09900E-07  1.71226E-16  6.11458E+00  2.31328E-07  1.0E-07
  5.500E-02  2.30367E-07  1.71226E-16  6.11458E+00  2.42343E-07  1.0E-07
  5.750E-02  2.51785E-07  1.71226E-16  6.11458E+00  2.53359E-07  1.0E-07
  6.000E-02  2.74156E-07  1.71226E-16  6.11458E+00  2.64374E-07  1.0E-07
  6.250E-02  2.97478E-07  1.71226E-16  6.11458E+00  2.75390E-07  1.0E-07
  6.500E-02  3.21752E-07  1.71226E-16  6.11458E+00  2.86406E-07  1.0E-07
  6.750E-02  3.46978E-07  1.71226E-16  6.11458E+00  2.97421E-07  1.0E-07
  7.000E-02  3.73156E-07  1.71226E-16  6.11458E+00  3.08437E-07  1.0E-07
  7.250E-02  4.00286E-07  1.71226E-16  6.11458E+00  3.19453E-07  1.0E-07
  7.500E-02  4.28368E-07  1.71226E-16  6.11458E+00  3.30468E-07  1.0E-07
  7.750E-02  4.57402E-07  1.71226E-16  6.11458E+00  3.41484E-07  1.0E-07
  8.000E-02  4.87388E-07  1.71226E-16  6.11458E+00  3.52500E-07  1.0E-07
  8.250E-02  5.18325E-07  1.71226E-16  6.11458E+00  3.63516E-07  1.0E-07
  8.500E-02  5.50215E-07  1.71226E-16  6.11458E+00  3.74531E-07  1.0E-07
  8.750E-02  5.83057E-07  1.71226E-16  6.11458E+00  3.85547E-07  1.0E-07
  9.000E-02  6.16850E-07  1.71226E-16  6.11458E+00  3.96563E-07  1.0E-07
  9.250E-02  6.51596E-07  1.71226E-16  6.11458E+00  4.07578E-07  1.0E-07
  9.500E-02  6.87293E-07  1.71226E-16  6.11458E+00  4.18594E-07  1.0E-07
  9.750E-02  7.23942E-07  1.71226E-16  6.11458E+00  4.29610E-07  1.0E-07
  1.000E-01  7.61543E-07  1.71226E-16  6.11458E+00  4.40626E-07  1.0E-07
  1.250E-01  1.18991E-06  1.71226E-16  6.11458E+00  5.50784E-07  1.0E-07
  1.500E-01  1.71347E-06  1.71225E-16  6.11457E+00  6.60944E-07  1.0E-07
  1.750E-01  2.33223E-06  1.71225E-16  6.11457E+00  7.71105E-07  1.0E-07
  2.000E-01  3.04617E-06  1.71225E-16  6.11456E+00  8.81267E-07  1.0E-07
  2.250E-01  3.85531E-06  1.71225E-16  6.11456E+00  9.91432E-07  1.0E-07
  2.500E-01  4.75964E-06  1.71225E-16  6.11455E+00  1.10160E-06  1.0E-07
  2.750E-01  5.75916E-06  1.71225E-16  6.11454E+00  1.21177E-06  1.0E-07
  3.000E-01  6.85388E-06  1.71224E-16  6.11453E+00  1.32194E-06  1.0E-07
  3.250E-01  8.04378E-06  1.71224E-16  6.11452E+00  1.43212E-06  1.0E-07
  3.500E-01  9.32888E-06  1.71224E-16  6.11451E+00  1.54229E-06  1.0E-07
  3.750E-01  1.07092E-05  1.71224E-16  6.11450E+00  1.65248E-06  1.0E-07
  4.000E-01  1.21846E-05  1.71223E-16  6.11449E+00  1.76266E-06  1.0E-07
  4.250E-01  1.37553E-05  1.71223E-16  6.11448E+00  1.87285E-06  1.0E-07
  4.500E-01  1.54212E-05  1.71222E-16  6.11447E+00  1.98304E-06  1.0E-07
  4.750E-01  1.71822E-05  1.71222E-16  6.11445E+00  2.09324E-06  1.0E-07
  5.000E-01  1.90385E-05  1.71222E-16  6.11444E+00  2.20345E-06  1.0E-07
  5.250E-01  2.09899E-05  1.71221E-16  6.11442E+00  2.31365E-06  1.0E-07
  5.500E-01  2.30365E-05  1.71221E-16  6.11441E+00  2.42387E-06  1.0E-07
  5.750E-01  2.51783E-05  1.71220E-16  6.11439E+00  2.53409E-06  1.0E-07
  6.000E-01  2.74153E-05  1.71220E-16  6.11437E+00  2.64431E-06  1.0E-07
  6.250E-01  2.97475E-05  1.71219E-16  6.11435E+00  2.75454E-06  1.0E-07
  6.500E-01  3.21749E-05  1.71219E-16  6.11433E+00  2.86478E-06  1.0E-07
  6.750E-01  3.46974E-05  1.71218E-16  6.11431E+00  2.97502E-06  1.0E-07
  7.000E-01  3.73152E-05  1.71218E-16  6.11429E+00  3.08527E-06  1.0E-07
  7.250E-01  4.00281E-05  1.71217E-16  6.11427E+00  3.19552E-06  1.0E-07
  7.500E-01  4.28362E-05  1.71216E-16  6.11425E+00  3.30579E-06  1.0E-07
  7.750E-01  4.57395E-05  1.71216E-16  6.11423E+00  3.41606E-06  1.0E-07
  8.000E-01  4.87380E-05  1.71215E-16  6.11421E+00  3.52634E-06  1.0E-07
  8.250E-01  5.18317E-05  1.71215E-16  6.11418E+00  3.63663E-06  1.0E-07
  8.500E-01  5.50205E-05  1.71214E-16  6.11416E+00  3.74692E-06  1.0E-07
  8.750E-01  5.83045E-05  1.71213E-16  6.11413E+00  3.85722E-06  1.0E-07
  9.000E-01  6.16838E-05  1.71212E-16  6.11410E+00  3.96754E-06  1.0E-07
  9.250E-01  6.51582E-05  1.71212E-16  6.11408E+00  4.07786E-06  1.0E-07
  9.500E-01  6.87277E-05  1.71211E-16  6.11405E+00  4.18819E-06  1.0E-07
  9.750E-01  7.23925E-05  1.71210E-16  6.11402E+00  4.29853E-06  1.0E-07
  1.000E+00  7.61524E-05  1.71209E-16  6.11399E+00  4.40887E-06  1.0E-07
  1.100E+00  9.21439E-05  1.71206E-16  6.11387E+00  4.85037E-06  1.0E-07
  1.200E+00  1.09658E-04  1.71202E-16  6.11373E+00  5.29204E-06  1.0E-07
  1.300E+00  1.28695E-04  1.71198E-16  6.11358E+00  5.73391E-06  1.0E-07
  1.400E+00  1.49255E-04  1.71193E-16  6.11342E+00  6.17598E-06  1.0E-07
  1.500E+00  1.71338E-04  1.71188E-16  6.11325E+00  6.61827E-06  1.0E-07
  1.600E+00  1.94942E-04  1.71183E-16  6.11306E+00  7.06079E-06  1.0E-07
  1.700E+00  2.20070E-04  1.71178E-16  6.11286E+00  7.50357E-06  1.0E-07
  1.800E+00  2.46720E-04  1.71172E-16  6.11266E+00  7.94663E-06  1.0E-07
  1.900E+00  2.74892E-04  1.71166E-16  6.11243E+00  8.38996E-06  1.0E-07
  2.000E+00  3.04586E-04  1.71159E-16  6.11220E+00  8.83360E-06  1.0E-07
  2.100E+00  3.35803E-04  1.71152E-16  6.11196E+00  9.27755E-06  1.0E-07
  2.200E+00  3.68542E-04  1.71145E-16  6.11170E+00  9.72183E-06  1.0E-07
  2.300E+00  4.02802E-04  1.71138E-16  6.11143E+00  1.01665E-05  1.0E-07
  2.400E+00  4.38585E-04  1.71130E-16  6.11115E+00  1.06115E-05  1.0E-07
  2.500E+00  4.75889E-04  1.71122E-16  6.11086E+00  1.10568E-05  1.0E-07
  2.600E+00  5.14715E-04  1.71113E-16  6.11056E+00  1.15026E-05  1.0E-07
  2.700E+00  5.55063E-04  1.71104E-16  6.11024E+00  1.19488E-05  1.0E-07
  2.800E+00  5.96931E-04  1.71095E-16  6.10991E+00  1.23954E-05  1.0E-07
  2.900E+00  6.40321E-04  1.71085E-16  6.10957E+00  1.28425E-05  1.0E-07
  3.000E+00  6.85233E-04  1.71076E-16  6.10922E+00  1.32900E-05  1.0E-07
  3.100E+00  7.31665E-04  1.71065E-16  6.10886E+00  1.37379E-05  1.0E-07
  3.200E+00  7.79618E-04  1.71055E-16  6.10848E+00  1.41864E-05  1.0E-07
  3.300E+00  8.29092E-04  1.71044E-16  6.10809E+00  1.46354E-05  1.0E-07
  3.400E+00  8.80086E-04  1.71033E-16  6.10769E+00  1.50849E-05  1.0E-07
  3.500E+00  9.32601E-04  1.71021E-16  6.10728E+00  1.55349E-05  1.0E-07
  3.600E+00  9.86636E-04  1.71009E-16  6.10686E+00  1.59855E-05  1.0E-07
  3.700E+00  1.04219E-03  1.70997E-16  6.10642E+00  1.64366E-05  1.0E-07
  3.800E+00  1.09927E-03  1.70985E-16  6.10598E+00  1.68884E-05  1.0E-07
  3.900E+00  1.15786E-03  1.70972E-16  6.10552E+00  1.73407E-05  1.0E-07
  4.000E+00  1.21797E-03  1.70959E-16  6.10505E+00  1.77936E-05  1.0E-07
  4.100E+00  1.27961E-03  1.70945E-16  6.10456E+00  1.82472E-05  1.0E-07
  4.200E+00  1.34276E-03  1.70931E-16  6.10407E+00  1.87014E-05  1.0E-07
  4.300E+00  1.40743E-03  1.70917E-16  6.10356E+00  1.91563E-05  1.0E-07
  4.400E+00  1.47362E-03  1.70903E-16  6.10304E+00  1.96119E-05  1.0E-07
  4.500E+00  1.54133E-03  1.70888E-16  6.10251E+00  2.00681E-05  1.0E-07
  4.600E+00  1.61056E-03  1.70872E-16  6.10197E+00  2.05250E-05  1.0E-07
  4.700E+00  1.68131E-03  1.70857E-16  6.10141E+00  2.09827E-05  1.0E-07
  4.800E+00  1.75357E-03  1.70841E-16  6.10084E+00  2.14411E-05  1.0E-07
  4.900E+00  1.82735E-03  1.70825E-16  6.10027E+00  2.19003E-05  1.0E-07
  5.000E+00  1.90265E-03  1.70808E-16  6.09968E+00  2.23602E-05  1.0E-07
  5.100E+00  1.97947E-03  1.70791E-16  6.09907E+00  2.28209E-05  1.0E-07
  5.200E+00  2.05780E-03  1.70774E-16  6.09846E+00  2.32824E-05  1.0E-07
  5.300E+00  2.13765E-03  1.70757E-16  6.09783E+00  2.37447E-05  1.0E-07
  5.400E+00  2.21902E-03  1.70739E-16  6.09719E+00  2.42078E-05  1.0E-07
  5.500E+00  2.30190E-03  1.70721E-16  6.09654E+00  2.46718E-05  1.0E-07
  5.600E+00  2.38630E-03  1.70702E-16  6.09588E+00  2.51366E-05  1.0E-07
  5.700E+00  2.47222E-03  1.70683E-16  6.09520E+00  2.56024E-05  1.0E-07
  5.800E+00  2.55965E-03  1.70664E-16  6.09452E+00  2.60690E-05  1.0E-07
  5.900E+00  2.64859E-03  1.70644E-16  6.09382E+00  2.65365E-05  1.0E-07
  6.000E+00  2.73905E-03  1.70624E-16  6.09311E+00  2.70049E-05  1.0E-07
  6.100E+00  2.83103E-03  1.70604E-16  6.09238E+00  2.74742E-05  1.0E-07
  6.200E+00  2.92452E-03  1.70584E-16  6.09165E+00  2.79445E-05  1.0E-07
  6.300E+00  3.01952E-03  1.70563E-16  6.09090E+00  2.84158E-05  1.0E-07
  6.400E+00  3.11604E-03  1.70541E-16  6.09014E+00  2.88880E-05  1.0E-07
  6.500E+00  3.21407E-03  1.70520E-16  6.08937E+00  2.93612E-05  1.0E-07
  6.600E+00  3.31362E-03  1.70498E-16  6.08859E+00  2.98355E-05  1.0E-07
  6.700E+00  3.41468E-03  1.70476E-16  6.08780E+00  3.03107E-05  1.0E-07
  6.800E+00  3.51725E-03  1.70453E-16  6.08699E+00  3.07870E-05  1.0E-07
  6.900E+00  3.62133E-03  1.70430E-16  6.08617E+00  3.12643E-05  1.0E-07
  7.000E+00  3.72692E-03  1.70407E-16  6.08534E+00  3.17427E-05  1.0E-07
  7.100E+00  3.83403E-03  1.70383E-16  6.08450E+00  3.22222E-05  1.0E-07
  7.200E+00  3.94265E-03  1.70359E-16  6.08364E+00  3.27028E-05  1.0E-07
  7.300E+00  4.05278E-03  1.70335E-16  6.08278E+00  3.31845E-05  1.0E-07
  7.400E+00  4.16442E-03  1.70310E-16  6.08190E+00  3.36673E-05  1.0E-07
  7.500E+00  4.27757E-03  1.70285E-16  6.08101E+00  3.41512E-05  1.0E-07
  7.600E+00  4.39223E-03  1.70260E-16  6.08010E+00  3.46363E-05  1.0E-07
  7.700E+00  4.50840E-03  1.70235E-16  6.07919E+00  3.51226E-05  1.0E-07
  7.800E+00  4.62608E-03  1.70209E-16  6.07826E+00  3.56100E-05  1.0E-07
  7.900E+00  4.74527E-03  1.70182E-16  6.07732E+00  3.60987E-05  1.0E-07
  8.000E+00  4.86597E-03  1.70156E-16  6.07637E+00  3.65885E-05  1.0E-07
  8.100E+00  4.98817E-03  1.70129E-16  6.07541E+00  3.70796E-05  1.0E-07
  8.200E+00  5.11188E-03  1.70101E-16  6.07443E+00  3.75719E-05  1.0E-07
  8.300E+00  5.23711E-03  1.70074E-16  6.07344E+00  3.80655E-05  1.0E-07
  8.400E+00  5.36383E-03  1.70046E-16  6.07244E+00  3.85603E-05  1.0E-07
  8.500E+00  5.49207E-03  1.70017E-16  6.07143E+00  3.90564E-05  1.0E-07
  8.600E+00  5.62181E-03  1.69989E-16  6.07041E+00  3.95538E-05  1.0E-07
  8.700E+00  5.75306E-03  1.69960E-16  6.06937E+00  4.00525E-05  1.0E-07
  8.800E+00  5.88581E-03  1.69930E-16  6.06833E+00  4.05525E-05  1.0E-07
  8.900E+00  6.02007E-03  1.69901E-16  6.06727E+00  4.10538E-05  1.0E-07
  9.000E+00  6.15583E-03  1.69871E-16  6.06619E+00  4.15566E-05  1.0E-07
  9.100E+00  6.29310E-03  1.69840E-16  6.06511E+00  4.20606E-05  1.0E-07
  9.200E+00  6.43187E-03  1.69810E-16  6.06401E+00  4.25661E-05  1.0E-07
  9.300E+00  6.57214E-03  1.69779E-16  6.06291E+00  4.30729E-05  1.0E-07
  9.400E+00  6.71392E-03  1.69747E-16  6.06179E+00  4.35811E-05  1.0E-07
  9.500E+00  6.85720E-03  1.69716E-16  6.06065E+00  4.40908E-05  1.0E-07
  9.600E+00  7.00198E-03  1.69684E-16  6.05951E+00  4.46019E-05  1.0E-07
  9.700E+00  7.14827E-03  1.69651E-16  6.05835E+00  4.51144E-05  1.0E-07
  9.800E+00  7.29605E-03  1.69618E-16  6.05718E+00  4.56284E-05  1.0E-07
  9.900E+00  7.44534E-03  1.69585E-16  6.05600E+00  4.61438E-05  1.0E-07
  1.000E+01  7.59612E-03  1.69552E-16  6.05481E+00  4.66608E-05  1.0E-07
  1.025E+01  7.97965E-03  1.69467E-16  6.05177E+00  4.79597E-05  1.0E-07
  1.050E+01  8.37255E-03  1.69380E-16  6.04866E+00  4.92682E-05  1.0E-07
  1.075E+01  8.77480E-03  1.69291E-16  6.04547E+00  5.05865E-05  1.0E-07
  1.100E+01  9.18641E-03  1.69199E-16  6.04221E+00  5.19147E-05  1.0E-07
  1.125E+01  9.60736E-03  1.69106E-16  6.03887E+00  5.32531E-05  1.0E-07
  1.150E+01  1.00376E-02  1.69010E-16  6.03545E+00  5.46018E-05  1.0E-07
  1.175E+01  1.04773E-02  1.68912E-16  6.03196E+00  5.59612E-05  1.0E-07
  1.200E+01  1.09262E-02  1.68812E-16  6.02839E+00  5.73312E-05  1.0E-07
  1.225E+01  1.13844E-02  1.68710E-16  6.02475E+00  5.87122E-05  1.0E-07
  1.250E+01  1.18520E-02  1.68606E-16  6.02102E+00  6.01044E-05  1.0E-07
  1.275E+01  1.23288E-02  1.68499E-16  6.01722E+00  6.15079E-05  1.0E-07
  1.300E+01  1.28150E-02  1.68391E-16  6.01335E+00  6.29229E-05  1.0E-07
  1.325E+01  1.33104E-02  1.68280E-16  6.00940E+00  6.43495E-05  1.0E-07
  1.350E+01  1.38150E-02  1.68167E-16  6.00537E+00  6.57881E-05  1.0E-07
  1.375E+01  1.43290E-02  1.68052E-16  6.00126E+00  6.72386E-05  1.0E-07
  1.400E+01  1.48521E-02  1.67935E-16  5.99707E+00  6.87014E-05  1.0E-07
  1.425E+01  1.53845E-02  1.67816E-16  5.99281E+00  7.01766E-05  1.0E-07
  1.450E+01  1.59262E-02  1.67694E-16  5.98847E+00  7.16644E-05  1.0E-07
  1.475E+01  1.64770E-02  1.67571E-16  5.98406E+00  7.31648E-05  1.0E-07
  1.500E+01  1.70371E-02  1.67445E-16  5.97956E+00  7.46782E-05  1.0E-07
