 #  Scattering amplitudes (in cm)      MU=(1-cos(TH))/2
 #  Z =   8,   projectile: electron
 #  Kinetic energy = 2.50000E+04 eV
 #
 # TH (deg)      MU          Re(F)        Im(F)        Re(G)        Im(G)
 #--------------------------------------------------------------------------
  0.000E+00  0.00000E+00  2.06314E-08  1.94780E-09  0.00000E+00  0.00000E+00
  1.000E-04  7.61557E-13  2.06314E-08  1.94780E-09  8.42940E-16  8.02030E-17
  1.250E-04  1.18994E-12  2.06314E-08  1.94780E-09  1.05368E-15  1.00254E-16
  1.500E-04  1.71346E-12  2.06314E-08  1.94780E-09  1.26441E-15  1.20305E-16
  1.750E-04  2.33225E-12  2.06314E-08  1.94780E-09  1.47515E-15  1.40355E-16
  2.000E-04  3.04617E-12  2.06314E-08  1.94780E-09  1.68588E-15  1.60406E-16
  2.250E-04  3.85530E-12  2.06314E-08  1.94780E-09  1.89662E-15  1.80457E-16
  2.500E-04  4.75964E-12  2.06314E-08  1.94780E-09  2.10735E-15  2.00508E-16
  2.750E-04  5.75917E-12  2.06314E-08  1.94780E-09  2.31809E-15  2.20558E-16
  3.000E-04  6.85391E-12  2.06314E-08  1.94780E-09  2.52882E-15  2.40609E-16
  3.250E-04  8.04379E-12  2.06314E-08  1.94780E-09  2.73956E-15  2.60660E-16
  3.500E-04  9.32893E-12  2.06314E-08  1.94780E-09  2.95029E-15  2.80711E-16
  3.750E-04  1.07092E-11  2.06314E-08  1.94780E-09  3.16103E-15  3.00761E-16
  4.000E-04  1.21847E-11  2.06314E-08  1.94780E-09  3.37176E-15  3.20812E-16
  4.250E-04  1.37554E-11  2.06314E-08  1.94780E-09  3.58250E-15  3.40863E-16
  4.500E-04  1.54213E-11  2.06314E-08  1.94780E-09  3.79323E-15  3.60914E-16
  4.750E-04  1.71823E-11  2.06314E-08  1.94780E-09  4.00397E-15  3.80964E-16
  5.000E-04  1.90386E-11  2.06314E-08  1.94780E-09  4.21470E-15  4.01015E-16
  5.250E-04  2.09900E-11  2.06314E-08  1.94780E-09  4.42544E-15  4.21066E-16
  5.500E-04  2.30367E-11  2.06314E-08  1.94780E-09  4.63617E-15  4.41117E-16
  5.750E-04  2.51785E-11  2.06314E-08  1.94780E-09  4.84691E-15  4.61167E-16
  6.000E-04  2.74156E-11  2.06314E-08  1.94780E-09  5.05764E-15  4.81218E-16
  6.250E-04  2.97478E-11  2.06314E-08  1.94780E-09  5.26838E-15  5.01269E-16
  6.500E-04  3.21752E-11  2.06314E-08  1.94780E-09  5.47911E-15  5.21320E-16
  6.750E-04  3.46979E-11  2.06314E-08  1.94780E-09  5.68985E-15  5.41370E-16
  7.000E-04  3.73157E-11  2.06314E-08  1.94780E-09  5.90058E-15  5.61421E-16
  7.250E-04  4.00286E-11  2.06314E-08  1.94780E-09  6.11132E-15  5.81472E-16
  7.500E-04  4.28368E-11  2.06314E-08  1.94780E-09  6.32205E-15  6.01523E-16
  7.750E-04  4.57402E-11  2.06314E-08  1.94780E-09  6.53279E-15  6.21573E-16
  8.000E-04  4.87388E-11  2.06314E-08  1.94780E-09  6.74352E-15  6.41624E-16
  8.250E-04  5.18325E-11  2.06314E-08  1.94780E-09  6.95426E-15  6.61675E-16
  8.500E-04  5.50215E-11  2.06314E-08  1.94780E-09  7.16499E-15  6.81726E-16
  8.750E-04  5.83057E-11  2.06314E-08  1.94780E-09  7.37573E-15  7.01776E-16
  9.000E-04  6.16850E-11  2.06314E-08  1.94780E-09  7.58646E-15  7.21827E-16
  9.250E-04  6.51595E-11  2.06314E-08  1.94780E-09  7.79720E-15  7.41878E-16
  9.500E-04  6.87293E-11  2.06314E-08  1.94780E-09  8.00793E-15  7.61929E-16
  9.750E-04  7.23943E-11  2.06314E-08  1.94780E-09  8.21867E-15  7.81979E-16
  1.000E-03  7.61544E-11  2.06314E-08  1.94780E-09  8.42940E-15  8.02030E-16
  1.250E-03  1.18991E-10  2.06314E-08  1.94780E-09  1.05368E-14  1.00254E-15
  1.500E-03  1.71347E-10  2.06314E-08  1.94780E-09  1.26441E-14  1.20305E-15
  1.750E-03  2.33223E-10  2.06314E-08  1.94780E-09  1.47515E-14  1.40355E-15
  2.000E-03  3.04617E-10  2.06314E-08  1.94780E-09  1.68588E-14  1.60406E-15
  2.250E-03  3.85531E-10  2.06314E-08  1.94780E-09  1.89661E-14  1.80457E-15
  2.500E-03  4.75965E-10  2.06314E-08  1.94780E-09  2.10735E-14  2.00507E-15
  2.750E-03  5.75917E-10  2.06314E-08  1.94780E-09  2.31808E-14  2.20558E-15
  3.000E-03  6.85389E-10  2.06314E-08  1.94780E-09  2.52882E-14  2.40609E-15
  3.250E-03  8.04380E-10  2.06314E-08  1.94780E-09  2.73955E-14  2.60660E-15
  3.500E-03  9.32891E-10  2.06314E-08  1.94780E-09  2.95029E-14  2.80710E-15
  3.750E-03  1.07092E-09  2.06314E-08  1.94780E-09  3.16102E-14  3.00761E-15
  4.000E-03  1.21847E-09  2.06314E-08  1.94780E-09  3.37176E-14  3.20812E-15
  4.250E-03  1.37554E-09  2.06314E-08  1.94780E-09  3.58249E-14  3.40863E-15
  4.500E-03  1.54213E-09  2.06314E-08  1.94780E-09  3.79322E-14  3.60913E-15
  4.750E-03  1.71823E-09  2.06314E-08  1.94780E-09  4.00396E-14  3.80964E-15
  5.000E-03  1.90386E-09  2.06314E-08  1.94780E-09  4.21469E-14  4.01015E-15
  5.250E-03  2.09900E-09  2.06314E-08  1.94780E-09  4.42542E-14  4.21066E-15
  5.500E-03  2.30367E-09  2.06313E-08  1.94780E-09  4.63615E-14  4.41116E-15
  5.750E-03  2.51785E-09  2.06313E-08  1.94780E-09  4.84689E-14  4.61167E-15
  6.000E-03  2.74156E-09  2.06313E-08  1.94780E-09  5.05762E-14  4.81218E-15
  6.250E-03  2.97478E-09  2.06313E-08  1.94780E-09  5.26835E-14  5.01268E-15
  6.500E-03  3.21752E-09  2.06313E-08  1.94780E-09  5.47908E-14  5.21319E-15
  6.750E-03  3.46978E-09  2.06313E-08  1.94780E-09  5.68982E-14  5.41370E-15
  7.000E-03  3.73156E-09  2.06313E-08  1.94780E-09  5.90055E-14  5.61420E-15
  7.250E-03  4.00286E-09  2.06313E-08  1.94780E-09  6.11128E-14  5.81471E-15
  7.500E-03  4.28368E-09  2.06313E-08  1.94780E-09  6.32201E-14  6.01522E-15
  7.750E-03  4.57402E-09  2.06313E-08  1.94780E-09  6.53274E-14  6.21572E-15
  8.000E-03  4.87388E-09  2.06313E-08  1.94780E-09  6.74347E-14  6.41623E-15
  8.250E-03  5.18326E-09  2.06312E-08  1.94780E-09  6.95420E-14  6.61674E-15
  8.500E-03  5.50215E-09  2.06312E-08  1.94780E-09  7.16493E-14  6.81724E-15
  8.750E-03  5.83057E-09  2.06312E-08  1.94780E-09  7.37566E-14  7.01775E-15
  9.000E-03  6.16850E-09  2.06312E-08  1.94780E-09  7.58639E-14  7.21826E-15
  9.250E-03  6.51596E-09  2.06312E-08  1.94780E-09  7.79711E-14  7.41876E-15
  9.500E-03  6.87293E-09  2.06312E-08  1.94780E-09  8.00784E-14  7.61927E-15
  9.750E-03  7.23942E-09  2.06312E-08  1.94780E-09  8.21857E-14  7.81978E-15
  1.000E-02  7.61544E-09  2.06312E-08  1.94780E-09  8.42930E-14  8.02028E-15
  1.250E-02  1.18991E-08  2.06310E-08  1.94779E-09  1.05365E-13  1.00253E-14
  1.500E-02  1.71347E-08  2.06308E-08  1.94779E-09  1.26437E-13  1.20304E-14
  1.750E-02  2.33223E-08  2.06306E-08  1.94779E-09  1.47509E-13  1.40354E-14
  2.000E-02  3.04617E-08  2.06304E-08  1.94778E-09  1.68580E-13  1.60404E-14
  2.250E-02  3.85531E-08  2.06301E-08  1.94778E-09  1.89649E-13  1.80455E-14
  2.500E-02  4.75965E-08  2.06298E-08  1.94777E-09  2.10718E-13  2.00505E-14
  2.750E-02  5.75917E-08  2.06294E-08  1.94777E-09  2.31786E-13  2.20554E-14
  3.000E-02  6.85389E-08  2.06291E-08  1.94776E-09  2.52853E-13  2.40604E-14
  3.250E-02  8.04380E-08  2.06286E-08  1.94775E-09  2.73919E-13  2.60653E-14
  3.500E-02  9.32891E-08  2.06282E-08  1.94774E-09  2.94983E-13  2.80702E-14
  3.750E-02  1.07092E-07  2.06277E-08  1.94774E-09  3.16046E-13  3.00751E-14
  4.000E-02  1.21847E-07  2.06272E-08  1.94773E-09  3.37108E-13  3.20800E-14
  4.250E-02  1.37554E-07  2.06267E-08  1.94772E-09  3.58167E-13  3.40848E-14
  4.500E-02  1.54213E-07  2.06261E-08  1.94771E-09  3.79226E-13  3.60896E-14
  4.750E-02  1.71823E-07  2.06255E-08  1.94770E-09  4.00282E-13  3.80944E-14
  5.000E-02  1.90386E-07  2.06248E-08  1.94768E-09  4.21336E-13  4.00991E-14
  5.250E-02  2.09900E-07  2.06242E-08  1.94767E-09  4.42389E-13  4.21038E-14
  5.500E-02  2.30367E-07  2.06235E-08  1.94766E-09  4.63439E-13  4.41085E-14
  5.750E-02  2.51785E-07  2.06227E-08  1.94765E-09  4.84487E-13  4.61131E-14
  6.000E-02  2.74156E-07  2.06220E-08  1.94763E-09  5.05533E-13  4.81177E-14
  6.250E-02  2.97478E-07  2.06211E-08  1.94762E-09  5.26576E-13  5.01222E-14
  6.500E-02  3.21752E-07  2.06203E-08  1.94760E-09  5.47617E-13  5.21267E-14
  6.750E-02  3.46978E-07  2.06194E-08  1.94759E-09  5.68655E-13  5.41311E-14
  7.000E-02  3.73156E-07  2.06185E-08  1.94757E-09  5.89691E-13  5.61355E-14
  7.250E-02  4.00286E-07  2.06176E-08  1.94755E-09  6.10724E-13  5.81399E-14
  7.500E-02  4.28368E-07  2.06166E-08  1.94754E-09  6.31753E-13  6.01442E-14
  7.750E-02  4.57402E-07  2.06156E-08  1.94752E-09  6.52780E-13  6.21484E-14
  8.000E-02  4.87388E-07  2.06146E-08  1.94750E-09  6.73804E-13  6.41526E-14
  8.250E-02  5.18325E-07  2.06135E-08  1.94748E-09  6.94824E-13  6.61567E-14
  8.500E-02  5.50215E-07  2.06124E-08  1.94746E-09  7.15842E-13  6.81608E-14
  8.750E-02  5.83057E-07  2.06113E-08  1.94744E-09  7.36855E-13  7.01648E-14
  9.000E-02  6.16850E-07  2.06101E-08  1.94742E-09  7.57866E-13  7.21687E-14
  9.250E-02  6.51596E-07  2.06089E-08  1.94740E-09  7.78872E-13  7.41726E-14
  9.500E-02  6.87293E-07  2.06077E-08  1.94738E-09  7.99875E-13  7.61764E-14
  9.750E-02  7.23942E-07  2.06064E-08  1.94736E-09  8.20874E-13  7.81802E-14
  1.000E-01  7.61543E-07  2.06051E-08  1.94733E-09  8.41870E-13  8.01839E-14
  1.250E-01  1.18991E-06  2.05904E-08  1.94707E-09  1.05159E-12  1.00216E-13
  1.500E-01  1.71347E-06  2.05724E-08  1.94675E-09  1.26080E-12  1.20240E-13
  1.750E-01  2.33223E-06  2.05511E-08  1.94636E-09  1.46942E-12  1.40253E-13
  2.000E-01  3.04617E-06  2.05267E-08  1.94592E-09  1.67735E-12  1.60253E-13
  2.250E-01  3.85531E-06  2.04990E-08  1.94543E-09  1.88448E-12  1.80239E-13
  2.500E-01  4.75964E-06  2.04682E-08  1.94487E-09  2.09073E-12  2.00209E-13
  2.750E-01  5.75916E-06  2.04342E-08  1.94426E-09  2.29599E-12  2.20160E-13
  3.000E-01  6.85388E-06  2.03971E-08  1.94358E-09  2.50019E-12  2.40093E-13
  3.250E-01  8.04378E-06  2.03569E-08  1.94285E-09  2.70322E-12  2.60004E-13
  3.500E-01  9.32888E-06  2.03137E-08  1.94207E-09  2.90500E-12  2.79891E-13
  3.750E-01  1.07092E-05  2.02675E-08  1.94122E-09  3.10544E-12  2.99754E-13
  4.000E-01  1.21846E-05  2.02183E-08  1.94032E-09  3.30445E-12  3.19591E-13
  4.250E-01  1.37553E-05  2.01662E-08  1.93936E-09  3.50196E-12  3.39398E-13
  4.500E-01  1.54212E-05  2.01112E-08  1.93834E-09  3.69787E-12  3.59176E-13
  4.750E-01  1.71822E-05  2.00534E-08  1.93727E-09  3.89212E-12  3.78922E-13
  5.000E-01  1.90385E-05  1.99927E-08  1.93614E-09  4.08462E-12  3.98635E-13
  5.250E-01  2.09899E-05  1.99294E-08  1.93495E-09  4.27531E-12  4.18312E-13
  5.500E-01  2.30365E-05  1.98634E-08  1.93370E-09  4.46410E-12  4.37952E-13
  5.750E-01  2.51783E-05  1.97947E-08  1.93240E-09  4.65093E-12  4.57554E-13
  6.000E-01  2.74153E-05  1.97235E-08  1.93105E-09  4.83573E-12  4.77116E-13
  6.250E-01  2.97475E-05  1.96497E-08  1.92964E-09  5.01845E-12  4.96636E-13
  6.500E-01  3.21749E-05  1.95735E-08  1.92817E-09  5.19901E-12  5.16113E-13
  6.750E-01  3.46974E-05  1.94949E-08  1.92665E-09  5.37735E-12  5.35544E-13
  7.000E-01  3.73152E-05  1.94139E-08  1.92507E-09  5.55343E-12  5.54929E-13
  7.250E-01  4.00281E-05  1.93307E-08  1.92344E-09  5.72719E-12  5.74265E-13
  7.500E-01  4.28362E-05  1.92453E-08  1.92176E-09  5.89858E-12  5.93552E-13
  7.750E-01  4.57395E-05  1.91577E-08  1.92002E-09  6.06755E-12  6.12787E-13
  8.000E-01  4.87380E-05  1.90680E-08  1.91823E-09  6.23405E-12  6.31969E-13
  8.250E-01  5.18317E-05  1.89764E-08  1.91638E-09  6.39805E-12  6.51097E-13
  8.500E-01  5.50205E-05  1.88827E-08  1.91449E-09  6.55951E-12  6.70169E-13
  8.750E-01  5.83045E-05  1.87872E-08  1.91253E-09  6.71839E-12  6.89184E-13
  9.000E-01  6.16838E-05  1.86898E-08  1.91053E-09  6.87465E-12  7.08139E-13
  9.250E-01  6.51582E-05  1.85907E-08  1.90848E-09  7.02827E-12  7.27034E-13
  9.500E-01  6.87277E-05  1.84899E-08  1.90637E-09  7.17921E-12  7.45867E-13
  9.750E-01  7.23925E-05  1.83875E-08  1.90422E-09  7.32746E-12  7.64637E-13
  1.000E+00  7.61524E-05  1.82835E-08  1.90201E-09  7.47299E-12  7.83342E-13
  1.100E+00  9.21439E-05  1.78534E-08  1.89268E-09  8.02755E-12  8.57489E-13
  1.200E+00  1.09658E-04  1.74037E-08  1.88257E-09  8.53747E-12  9.30493E-13
  1.300E+00  1.28695E-04  1.69384E-08  1.87172E-09  9.00250E-12  1.00227E-12
  1.400E+00  1.49255E-04  1.64614E-08  1.86014E-09  9.42295E-12  1.07276E-12
  1.500E+00  1.71338E-04  1.59764E-08  1.84788E-09  9.79959E-12  1.14187E-12
  1.600E+00  1.94942E-04  1.54866E-08  1.83495E-09  1.01336E-11  1.20956E-12
  1.700E+00  2.20070E-04  1.49951E-08  1.82141E-09  1.04266E-11  1.27576E-12
  1.800E+00  2.46720E-04  1.45046E-08  1.80727E-09  1.06802E-11  1.34041E-12
  1.900E+00  2.74892E-04  1.40176E-08  1.79257E-09  1.08965E-11  1.40348E-12
  2.000E+00  3.04586E-04  1.35361E-08  1.77735E-09  1.10776E-11  1.46493E-12
  2.100E+00  3.35803E-04  1.30619E-08  1.76165E-09  1.12257E-11  1.52471E-12
  2.200E+00  3.68542E-04  1.25965E-08  1.74549E-09  1.13430E-11  1.58281E-12
  2.300E+00  4.02802E-04  1.21412E-08  1.72892E-09  1.14319E-11  1.63919E-12
  2.400E+00  4.38585E-04  1.16971E-08  1.71196E-09  1.14946E-11  1.69384E-12
  2.500E+00  4.75889E-04  1.12649E-08  1.69465E-09  1.15331E-11  1.74675E-12
  2.600E+00  5.14715E-04  1.08452E-08  1.67703E-09  1.15497E-11  1.79792E-12
  2.700E+00  5.55063E-04  1.04385E-08  1.65913E-09  1.15464E-11  1.84733E-12
  2.800E+00  5.96931E-04  1.00451E-08  1.64097E-09  1.15250E-11  1.89499E-12
  2.900E+00  6.40321E-04  9.66508E-09  1.62260E-09  1.14874E-11  1.94091E-12
  3.000E+00  6.85233E-04  9.29858E-09  1.60404E-09  1.14353E-11  1.98510E-12
  3.100E+00  7.31665E-04  8.94553E-09  1.58531E-09  1.13703E-11  2.02757E-12
  3.200E+00  7.79618E-04  8.60580E-09  1.56646E-09  1.12939E-11  2.06834E-12
  3.300E+00  8.29092E-04  8.27921E-09  1.54751E-09  1.12074E-11  2.10742E-12
  3.400E+00  8.80086E-04  7.96551E-09  1.52848E-09  1.11121E-11  2.14486E-12
  3.500E+00  9.32601E-04  7.66442E-09  1.50940E-09  1.10092E-11  2.18066E-12
  3.600E+00  9.86636E-04  7.37562E-09  1.49028E-09  1.08998E-11  2.21486E-12
  3.700E+00  1.04219E-03  7.09875E-09  1.47117E-09  1.07847E-11  2.24749E-12
  3.800E+00  1.09927E-03  6.83345E-09  1.45207E-09  1.06650E-11  2.27858E-12
  3.900E+00  1.15786E-03  6.57934E-09  1.43301E-09  1.05414E-11  2.30816E-12
  4.000E+00  1.21797E-03  6.33603E-09  1.41400E-09  1.04147E-11  2.33628E-12
  4.100E+00  1.27961E-03  6.10311E-09  1.39507E-09  1.02854E-11  2.36296E-12
  4.200E+00  1.34276E-03  5.88021E-09  1.37622E-09  1.01543E-11  2.38825E-12
  4.300E+00  1.40743E-03  5.66692E-09  1.35749E-09  1.00218E-11  2.41219E-12
  4.400E+00  1.47362E-03  5.46285E-09  1.33887E-09  9.88847E-12  2.43481E-12
  4.500E+00  1.54133E-03  5.26762E-09  1.32039E-09  9.75465E-12  2.45614E-12
  4.600E+00  1.61056E-03  5.08086E-09  1.30205E-09  9.62076E-12  2.47625E-12
  4.700E+00  1.68131E-03  4.90220E-09  1.28388E-09  9.48712E-12  2.49515E-12
  4.800E+00  1.75357E-03  4.73128E-09  1.26587E-09  9.35404E-12  2.51289E-12
  4.900E+00  1.82735E-03  4.56777E-09  1.24803E-09  9.22178E-12  2.52952E-12
  5.000E+00  1.90265E-03  4.41133E-09  1.23039E-09  9.09055E-12  2.54506E-12
  5.100E+00  1.97947E-03  4.26163E-09  1.21294E-09  8.96057E-12  2.55956E-12
  5.200E+00  2.05780E-03  4.11838E-09  1.19569E-09  8.83200E-12  2.57306E-12
  5.300E+00  2.13765E-03  3.98126E-09  1.17865E-09  8.70499E-12  2.58560E-12
  5.400E+00  2.21902E-03  3.85001E-09  1.16182E-09  8.57966E-12  2.59720E-12
  5.500E+00  2.30190E-03  3.72434E-09  1.14520E-09  8.45612E-12  2.60792E-12
  5.600E+00  2.38630E-03  3.60399E-09  1.12881E-09  8.33446E-12  2.61778E-12
  5.700E+00  2.47222E-03  3.48872E-09  1.11265E-09  8.21474E-12  2.62682E-12
  5.800E+00  2.55965E-03  3.37829E-09  1.09671E-09  8.09703E-12  2.63507E-12
  5.900E+00  2.64859E-03  3.27246E-09  1.08100E-09  7.98138E-12  2.64257E-12
  6.000E+00  2.73905E-03  3.17102E-09  1.06552E-09  7.86780E-12  2.64934E-12
  6.100E+00  2.83103E-03  3.07377E-09  1.05028E-09  7.75633E-12  2.65543E-12
  6.200E+00  2.92452E-03  2.98051E-09  1.03527E-09  7.64699E-12  2.66086E-12
  6.300E+00  3.01952E-03  2.89105E-09  1.02050E-09  7.53977E-12  2.66567E-12
  6.400E+00  3.11604E-03  2.80520E-09  1.00596E-09  7.43468E-12  2.66987E-12
  6.500E+00  3.21407E-03  2.72281E-09  9.91649E-10  7.33171E-12  2.67350E-12
  6.600E+00  3.31362E-03  2.64371E-09  9.77576E-10  7.23085E-12  2.67658E-12
  6.700E+00  3.41468E-03  2.56775E-09  9.63736E-10  7.13208E-12  2.67915E-12
  6.800E+00  3.51725E-03  2.49477E-09  9.50126E-10  7.03538E-12  2.68122E-12
  6.900E+00  3.62133E-03  2.42465E-09  9.36747E-10  6.94073E-12  2.68282E-12
  7.000E+00  3.72692E-03  2.35725E-09  9.23595E-10  6.84810E-12  2.68397E-12
  7.100E+00  3.83403E-03  2.29244E-09  9.10670E-10  6.75746E-12  2.68470E-12
  7.200E+00  3.94265E-03  2.23010E-09  8.97969E-10  6.66878E-12  2.68503E-12
  7.300E+00  4.05278E-03  2.17013E-09  8.85490E-10  6.58202E-12  2.68497E-12
  7.400E+00  4.16442E-03  2.11241E-09  8.73230E-10  6.49715E-12  2.68456E-12
  7.500E+00  4.27757E-03  2.05685E-09  8.61187E-10  6.41413E-12  2.68379E-12
  7.600E+00  4.39223E-03  2.00333E-09  8.49359E-10  6.33293E-12  2.68271E-12
  7.700E+00  4.50840E-03  1.95178E-09  8.37741E-10  6.25350E-12  2.68131E-12
  7.800E+00  4.62608E-03  1.90211E-09  8.26332E-10  6.17582E-12  2.67963E-12
  7.900E+00  4.74527E-03  1.85422E-09  8.15129E-10  6.09983E-12  2.67767E-12
  8.000E+00  4.86597E-03  1.80805E-09  8.04128E-10  6.02551E-12  2.67545E-12
  8.100E+00  4.98817E-03  1.76352E-09  7.93326E-10  5.95280E-12  2.67298E-12
  8.200E+00  5.11188E-03  1.72055E-09  7.82721E-10  5.88169E-12  2.67029E-12
  8.300E+00  5.23711E-03  1.67907E-09  7.72309E-10  5.81211E-12  2.66737E-12
  8.400E+00  5.36383E-03  1.63903E-09  7.62086E-10  5.74405E-12  2.66425E-12
  8.500E+00  5.49207E-03  1.60036E-09  7.52051E-10  5.67745E-12  2.66094E-12
  8.600E+00  5.62181E-03  1.56300E-09  7.42198E-10  5.61228E-12  2.65745E-12
  8.700E+00  5.75306E-03  1.52690E-09  7.32526E-10  5.54851E-12  2.65378E-12
  8.800E+00  5.88581E-03  1.49200E-09  7.23031E-10  5.48610E-12  2.64995E-12
  8.900E+00  6.02007E-03  1.45826E-09  7.13709E-10  5.42501E-12  2.64598E-12
  9.000E+00  6.15583E-03  1.42562E-09  7.04558E-10  5.36522E-12  2.64186E-12
  9.100E+00  6.29310E-03  1.39403E-09  6.95574E-10  5.30667E-12  2.63761E-12
  9.200E+00  6.43187E-03  1.36347E-09  6.86755E-10  5.24935E-12  2.63324E-12
  9.300E+00  6.57214E-03  1.33388E-09  6.78096E-10  5.19321E-12  2.62875E-12
  9.400E+00  6.71392E-03  1.30522E-09  6.69594E-10  5.13823E-12  2.62416E-12
  9.500E+00  6.85720E-03  1.27746E-09  6.61248E-10  5.08438E-12  2.61946E-12
  9.600E+00  7.00198E-03  1.25056E-09  6.53053E-10  5.03162E-12  2.61468E-12
  9.700E+00  7.14827E-03  1.22449E-09  6.45006E-10  4.97992E-12  2.60980E-12
  9.800E+00  7.29605E-03  1.19921E-09  6.37105E-10  4.92926E-12  2.60484E-12
  9.900E+00  7.44534E-03  1.17469E-09  6.29347E-10  4.87961E-12  2.59981E-12
  1.000E+01  7.59612E-03  1.15091E-09  6.21728E-10  4.83093E-12  2.59472E-12
  1.025E+01  7.97965E-03  1.09448E-09  6.03274E-10  4.71336E-12  2.58170E-12
  1.050E+01  8.37255E-03  1.04205E-09  5.85630E-10  4.60135E-12  2.56836E-12
  1.075E+01  8.77480E-03  9.93256E-10  5.68756E-10  4.49453E-12  2.55476E-12
  1.100E+01  9.18641E-03  9.47773E-10  5.52611E-10  4.39256E-12  2.54095E-12
  1.125E+01  9.60736E-03  9.05309E-10  5.37157E-10  4.29511E-12  2.52700E-12
  1.150E+01  1.00376E-02  8.65603E-10  5.22358E-10  4.20188E-12  2.51293E-12
  1.175E+01  1.04773E-02  8.28423E-10  5.08179E-10  4.11262E-12  2.49879E-12
  1.200E+01  1.09262E-02  7.93557E-10  4.94588E-10  4.02705E-12  2.48460E-12
  1.225E+01  1.13844E-02  7.60816E-10  4.81554E-10  3.94495E-12  2.47039E-12
  1.250E+01  1.18520E-02  7.30031E-10  4.69048E-10  3.86610E-12  2.45619E-12
  1.275E+01  1.23288E-02  7.01046E-10  4.57043E-10  3.79030E-12  2.44201E-12
  1.300E+01  1.28150E-02  6.73723E-10  4.45512E-10  3.71736E-12  2.42787E-12
  1.325E+01  1.33104E-02  6.47936E-10  4.34431E-10  3.64712E-12  2.41379E-12
  1.350E+01  1.38150E-02  6.23570E-10  4.23777E-10  3.57941E-12  2.39977E-12
  1.375E+01  1.43290E-02  6.00521E-10  4.13528E-10  3.51408E-12  2.38582E-12
  1.400E+01  1.48521E-02  5.78694E-10  4.03664E-10  3.45100E-12  2.37195E-12
  1.425E+01  1.53845E-02  5.58004E-10  3.94165E-10  3.39005E-12  2.35818E-12
  1.450E+01  1.59262E-02  5.38372E-10  3.85014E-10  3.33111E-12  2.34450E-12
  1.475E+01  1.64770E-02  5.19725E-10  3.76193E-10  3.27407E-12  2.33091E-12
  1.500E+01  1.70371E-02  5.01997E-10  3.67686E-10  3.21882E-12  2.31742E-12
