 #
 # Subroutine ELSEPA. Elastic scattering of electrons and positrons
 #                    by neutral atoms and positive ions
 #
 # Projectile: electron
 # Kinetic energy = 1.10000E+04 eV = 4.04243E+02 a.u.
 #
 # Element: Si,  Z =  14,  atomic weight = 2.80855E+01 g/mol
 #
 # Nuclear model: Fermi distribution
 #                Average radius = 3.25245E-13 cm
 #                Skin thickness = 5.46000E-14 cm
 #
 # Number of electrons = 14
 #
 # Electron density: Read from file z_014.den   
 #                   Number of data points =  761
 #                   Volume integral = 1.40000E+01
 #
 # Furness-McCarthy exchange potential
 #
 # Total elastic cross section = 1.97720E-17 cm**2 = 7.06069E-01 a0**2
 # 1st transport cross section = 2.60811E-19 cm**2 = 9.31372E-03 a0**2
 # 2nd transport cross section = 6.16338E-19 cm**2 = 2.20098E-02 a0**2
 #
 #
 # Differential cross section:                       MU=(1-COS(THETA))/2
 #
 #  THETA        MU          DCS          DCS        Sherman      error
 #  (deg)                 (cm**2/sr)   (a0**2/sr)    function
 #----------------------------------------------------------------------
  0.000E+00  0.00000E+00  3.29881E-15  1.17803E+02  0.00000E+00  1.0E-07
  1.000E-04  7.61557E-13  3.29881E-15  1.17803E+02  1.98346E-10  1.0E-07
  1.250E-04  1.18994E-12  3.29881E-15  1.17803E+02  2.47932E-10  1.0E-07
  1.500E-04  1.71346E-12  3.29881E-15  1.17803E+02  2.97519E-10  1.0E-07
  1.750E-04  2.33225E-12  3.29881E-15  1.17803E+02  3.47105E-10  1.0E-07
  2.000E-04  3.04617E-12  3.29881E-15  1.17803E+02  3.96692E-10  1.0E-07
  2.250E-04  3.85530E-12  3.29881E-15  1.17803E+02  4.46278E-10  1.0E-07
  2.500E-04  4.75964E-12  3.29881E-15  1.17803E+02  4.95865E-10  1.0E-07
  2.750E-04  5.75917E-12  3.29881E-15  1.17803E+02  5.45451E-10  1.0E-07
  3.000E-04  6.85391E-12  3.29881E-15  1.17803E+02  5.95038E-10  1.0E-07
  3.250E-04  8.04379E-12  3.29881E-15  1.17803E+02  6.44624E-10  1.0E-07
  3.500E-04  9.32893E-12  3.29881E-15  1.17803E+02  6.94211E-10  1.0E-07
  3.750E-04  1.07092E-11  3.29881E-15  1.17803E+02  7.43797E-10  1.0E-07
  4.000E-04  1.21847E-11  3.29881E-15  1.17803E+02  7.93383E-10  1.0E-07
  4.250E-04  1.37554E-11  3.29881E-15  1.17803E+02  8.42970E-10  1.0E-07
  4.500E-04  1.54213E-11  3.29881E-15  1.17803E+02  8.92556E-10  1.0E-07
  4.750E-04  1.71823E-11  3.29881E-15  1.17803E+02  9.42143E-10  1.0E-07
  5.000E-04  1.90386E-11  3.29881E-15  1.17803E+02  9.91729E-10  1.0E-07
  5.250E-04  2.09900E-11  3.29881E-15  1.17803E+02  1.04132E-09  1.0E-07
  5.500E-04  2.30367E-11  3.29881E-15  1.17803E+02  1.09090E-09  1.0E-07
  5.750E-04  2.51785E-11  3.29881E-15  1.17803E+02  1.14049E-09  1.0E-07
  6.000E-04  2.74156E-11  3.29881E-15  1.17803E+02  1.19008E-09  1.0E-07
  6.250E-04  2.97478E-11  3.29881E-15  1.17803E+02  1.23966E-09  1.0E-07
  6.500E-04  3.21752E-11  3.29881E-15  1.17803E+02  1.28925E-09  1.0E-07
  6.750E-04  3.46979E-11  3.29881E-15  1.17803E+02  1.33883E-09  1.0E-07
  7.000E-04  3.73157E-11  3.29881E-15  1.17803E+02  1.38842E-09  1.0E-07
  7.250E-04  4.00286E-11  3.29881E-15  1.17803E+02  1.43801E-09  1.0E-07
  7.500E-04  4.28368E-11  3.29881E-15  1.17803E+02  1.48759E-09  1.0E-07
  7.750E-04  4.57402E-11  3.29881E-15  1.17803E+02  1.53718E-09  1.0E-07
  8.000E-04  4.87388E-11  3.29881E-15  1.17803E+02  1.58677E-09  1.0E-07
  8.250E-04  5.18325E-11  3.29881E-15  1.17802E+02  1.63635E-09  1.0E-07
  8.500E-04  5.50215E-11  3.29881E-15  1.17802E+02  1.68594E-09  1.0E-07
  8.750E-04  5.83057E-11  3.29881E-15  1.17802E+02  1.73553E-09  1.0E-07
  9.000E-04  6.16850E-11  3.29881E-15  1.17802E+02  1.78511E-09  1.0E-07
  9.250E-04  6.51595E-11  3.29881E-15  1.17802E+02  1.83470E-09  1.0E-07
  9.500E-04  6.87293E-11  3.29881E-15  1.17802E+02  1.88429E-09  1.0E-07
  9.750E-04  7.23943E-11  3.29881E-15  1.17802E+02  1.93387E-09  1.0E-07
  1.000E-03  7.61544E-11  3.29881E-15  1.17802E+02  1.98346E-09  1.0E-07
  1.250E-03  1.18991E-10  3.29880E-15  1.17802E+02  2.47932E-09  1.0E-07
  1.500E-03  1.71347E-10  3.29880E-15  1.17802E+02  2.97519E-09  1.0E-07
  1.750E-03  2.33223E-10  3.29880E-15  1.17802E+02  3.47105E-09  1.0E-07
  2.000E-03  3.04617E-10  3.29880E-15  1.17802E+02  3.96692E-09  1.0E-07
  2.250E-03  3.85531E-10  3.29880E-15  1.17802E+02  4.46279E-09  1.0E-07
  2.500E-03  4.75965E-10  3.29880E-15  1.17802E+02  4.95865E-09  1.0E-07
  2.750E-03  5.75917E-10  3.29880E-15  1.17802E+02  5.45452E-09  1.0E-07
  3.000E-03  6.85389E-10  3.29880E-15  1.17802E+02  5.95038E-09  1.0E-07
  3.250E-03  8.04380E-10  3.29880E-15  1.17802E+02  6.44625E-09  1.0E-07
  3.500E-03  9.32891E-10  3.29879E-15  1.17802E+02  6.94212E-09  1.0E-07
  3.750E-03  1.07092E-09  3.29879E-15  1.17802E+02  7.43799E-09  1.0E-07
  4.000E-03  1.21847E-09  3.29879E-15  1.17802E+02  7.93385E-09  1.0E-07
  4.250E-03  1.37554E-09  3.29879E-15  1.17802E+02  8.42972E-09  1.0E-07
  4.500E-03  1.54213E-09  3.29878E-15  1.17802E+02  8.92559E-09  1.0E-07
  4.750E-03  1.71823E-09  3.29878E-15  1.17802E+02  9.42146E-09  1.0E-07
  5.000E-03  1.90386E-09  3.29878E-15  1.17802E+02  9.91733E-09  1.0E-07
  5.250E-03  2.09900E-09  3.29878E-15  1.17801E+02  1.04132E-08  1.0E-07
  5.500E-03  2.30367E-09  3.29877E-15  1.17801E+02  1.09091E-08  1.0E-07
  5.750E-03  2.51785E-09  3.29877E-15  1.17801E+02  1.14049E-08  1.0E-07
  6.000E-03  2.74156E-09  3.29877E-15  1.17801E+02  1.19008E-08  1.0E-07
  6.250E-03  2.97478E-09  3.29876E-15  1.17801E+02  1.23967E-08  1.0E-07
  6.500E-03  3.21752E-09  3.29876E-15  1.17801E+02  1.28926E-08  1.0E-07
  6.750E-03  3.46978E-09  3.29876E-15  1.17801E+02  1.33884E-08  1.0E-07
  7.000E-03  3.73156E-09  3.29875E-15  1.17801E+02  1.38843E-08  1.0E-07
  7.250E-03  4.00286E-09  3.29875E-15  1.17800E+02  1.43802E-08  1.0E-07
  7.500E-03  4.28368E-09  3.29874E-15  1.17800E+02  1.48761E-08  1.0E-07
  7.750E-03  4.57402E-09  3.29874E-15  1.17800E+02  1.53719E-08  1.0E-07
  8.000E-03  4.87388E-09  3.29874E-15  1.17800E+02  1.58678E-08  1.0E-07
  8.250E-03  5.18326E-09  3.29873E-15  1.17800E+02  1.63637E-08  1.0E-07
  8.500E-03  5.50215E-09  3.29873E-15  1.17800E+02  1.68596E-08  1.0E-07
  8.750E-03  5.83057E-09  3.29872E-15  1.17800E+02  1.73555E-08  1.0E-07
  9.000E-03  6.16850E-09  3.29872E-15  1.17799E+02  1.78513E-08  1.0E-07
  9.250E-03  6.51596E-09  3.29871E-15  1.17799E+02  1.83472E-08  1.0E-07
  9.500E-03  6.87293E-09  3.29871E-15  1.17799E+02  1.88431E-08  1.0E-07
  9.750E-03  7.23942E-09  3.29870E-15  1.17799E+02  1.93390E-08  1.0E-07
  1.000E-02  7.61544E-09  3.29870E-15  1.17799E+02  1.98349E-08  1.0E-07
  1.250E-02  1.18991E-08  3.29863E-15  1.17796E+02  2.47938E-08  1.0E-07
  1.500E-02  1.71347E-08  3.29856E-15  1.17794E+02  2.97529E-08  1.0E-07
  1.750E-02  2.33223E-08  3.29847E-15  1.17790E+02  3.47121E-08  1.0E-07
  2.000E-02  3.04617E-08  3.29836E-15  1.17787E+02  3.96715E-08  1.0E-07
  2.250E-02  3.85531E-08  3.29825E-15  1.17783E+02  4.46311E-08  1.0E-07
  2.500E-02  4.75965E-08  3.29812E-15  1.17778E+02  4.95910E-08  1.0E-07
  2.750E-02  5.75917E-08  3.29797E-15  1.17773E+02  5.45511E-08  1.0E-07
  3.000E-02  6.85389E-08  3.29781E-15  1.17767E+02  5.95116E-08  1.0E-07
  3.250E-02  8.04380E-08  3.29764E-15  1.17761E+02  6.44723E-08  1.0E-07
  3.500E-02  9.32891E-08  3.29745E-15  1.17754E+02  6.94334E-08  1.0E-07
  3.750E-02  1.07092E-07  3.29725E-15  1.17747E+02  7.43949E-08  1.0E-07
  4.000E-02  1.21847E-07  3.29704E-15  1.17739E+02  7.93568E-08  1.0E-07
  4.250E-02  1.37554E-07  3.29681E-15  1.17731E+02  8.43192E-08  1.0E-07
  4.500E-02  1.54213E-07  3.29657E-15  1.17723E+02  8.92820E-08  1.0E-07
  4.750E-02  1.71823E-07  3.29631E-15  1.17713E+02  9.42452E-08  1.0E-07
  5.000E-02  1.90386E-07  3.29604E-15  1.17704E+02  9.92090E-08  1.0E-07
  5.250E-02  2.09900E-07  3.29576E-15  1.17694E+02  1.04173E-07  1.0E-07
  5.500E-02  2.30367E-07  3.29546E-15  1.17683E+02  1.09138E-07  1.0E-07
  5.750E-02  2.51785E-07  3.29515E-15  1.17672E+02  1.14104E-07  1.0E-07
  6.000E-02  2.74156E-07  3.29483E-15  1.17660E+02  1.19070E-07  1.0E-07
  6.250E-02  2.97478E-07  3.29449E-15  1.17648E+02  1.24037E-07  1.0E-07
  6.500E-02  3.21752E-07  3.29414E-15  1.17636E+02  1.29004E-07  1.0E-07
  6.750E-02  3.46978E-07  3.29377E-15  1.17623E+02  1.33972E-07  1.0E-07
  7.000E-02  3.73156E-07  3.29339E-15  1.17609E+02  1.38941E-07  1.0E-07
  7.250E-02  4.00286E-07  3.29300E-15  1.17595E+02  1.43911E-07  1.0E-07
  7.500E-02  4.28368E-07  3.29259E-15  1.17581E+02  1.48881E-07  1.0E-07
  7.750E-02  4.57402E-07  3.29217E-15  1.17566E+02  1.53852E-07  1.0E-07
  8.000E-02  4.87388E-07  3.29174E-15  1.17550E+02  1.58825E-07  1.0E-07
  8.250E-02  5.18325E-07  3.29129E-15  1.17534E+02  1.63797E-07  1.0E-07
  8.500E-02  5.50215E-07  3.29083E-15  1.17518E+02  1.68771E-07  1.0E-07
  8.750E-02  5.83057E-07  3.29035E-15  1.17501E+02  1.73746E-07  1.0E-07
  9.000E-02  6.16850E-07  3.28986E-15  1.17483E+02  1.78722E-07  1.0E-07
  9.250E-02  6.51596E-07  3.28936E-15  1.17465E+02  1.83698E-07  1.0E-07
  9.500E-02  6.87293E-07  3.28884E-15  1.17447E+02  1.88676E-07  1.0E-07
  9.750E-02  7.23942E-07  3.28831E-15  1.17428E+02  1.93655E-07  1.0E-07
  1.000E-01  7.61543E-07  3.28777E-15  1.17408E+02  1.98635E-07  1.0E-07
  1.250E-01  1.18991E-06  3.28158E-15  1.17187E+02  2.48496E-07  1.0E-07
  1.500E-01  1.71347E-06  3.27404E-15  1.16918E+02  2.98493E-07  1.0E-07
  1.750E-01  2.33223E-06  3.26517E-15  1.16601E+02  3.48653E-07  1.0E-07
  2.000E-01  3.04617E-06  3.25497E-15  1.16237E+02  3.99001E-07  1.0E-07
  2.250E-01  3.85531E-06  3.24346E-15  1.15826E+02  4.49566E-07  1.0E-07
  2.500E-01  4.75964E-06  3.23067E-15  1.15369E+02  5.00375E-07  1.0E-07
  2.750E-01  5.75916E-06  3.21661E-15  1.14867E+02  5.51454E-07  1.0E-07
  3.000E-01  6.85388E-06  3.20131E-15  1.14321E+02  6.02830E-07  1.0E-07
  3.250E-01  8.04378E-06  3.18480E-15  1.13731E+02  6.54530E-07  1.0E-07
  3.500E-01  9.32888E-06  3.16711E-15  1.13099E+02  7.06582E-07  1.0E-07
  3.750E-01  1.07092E-05  3.14825E-15  1.12426E+02  7.59011E-07  1.0E-07
  4.000E-01  1.21846E-05  3.12827E-15  1.11713E+02  8.11845E-07  1.0E-07
  4.250E-01  1.37553E-05  3.10720E-15  1.10960E+02  8.65111E-07  1.0E-07
  4.500E-01  1.54212E-05  3.08507E-15  1.10170E+02  9.18835E-07  1.0E-07
  4.750E-01  1.71822E-05  3.06192E-15  1.09343E+02  9.73044E-07  1.0E-07
  5.000E-01  1.90385E-05  3.03778E-15  1.08481E+02  1.02777E-06  1.0E-07
  5.250E-01  2.09899E-05  3.01269E-15  1.07585E+02  1.08302E-06  1.0E-07
  5.500E-01  2.30365E-05  2.98669E-15  1.06657E+02  1.13885E-06  1.0E-07
  5.750E-01  2.51783E-05  2.95982E-15  1.05697E+02  1.19526E-06  1.0E-07
  6.000E-01  2.74153E-05  2.93212E-15  1.04708E+02  1.25230E-06  1.0E-07
  6.250E-01  2.97475E-05  2.90363E-15  1.03690E+02  1.30997E-06  1.0E-07
  6.500E-01  3.21749E-05  2.87439E-15  1.02646E+02  1.36832E-06  1.0E-07
  6.750E-01  3.46974E-05  2.84444E-15  1.01577E+02  1.42736E-06  1.0E-07
  7.000E-01  3.73152E-05  2.81383E-15  1.00484E+02  1.48713E-06  1.0E-07
  7.250E-01  4.00281E-05  2.78259E-15  9.93681E+01  1.54764E-06  1.0E-07
  7.500E-01  4.28362E-05  2.75077E-15  9.82318E+01  1.60893E-06  1.0E-07
  7.750E-01  4.57395E-05  2.71841E-15  9.70763E+01  1.67102E-06  1.0E-07
  8.000E-01  4.87380E-05  2.68556E-15  9.59030E+01  1.73393E-06  1.0E-07
  8.250E-01  5.18317E-05  2.65225E-15  9.47134E+01  1.79770E-06  1.0E-07
  8.500E-01  5.50205E-05  2.61852E-15  9.35090E+01  1.86234E-06  1.0E-07
  8.750E-01  5.83045E-05  2.58442E-15  9.22912E+01  1.92788E-06  1.0E-07
  9.000E-01  6.16838E-05  2.54998E-15  9.10614E+01  1.99435E-06  1.0E-07
  9.250E-01  6.51582E-05  2.51525E-15  8.98211E+01  2.06177E-06  1.0E-07
  9.500E-01  6.87277E-05  2.48026E-15  8.85716E+01  2.13017E-06  1.0E-07
  9.750E-01  7.23925E-05  2.44505E-15  8.73143E+01  2.19957E-06  1.0E-07
  1.000E+00  7.61524E-05  2.40966E-15  8.60506E+01  2.26999E-06  1.0E-07
  1.100E+00  9.21439E-05  2.26700E-15  8.09561E+01  2.56243E-06  1.0E-07
  1.200E+00  1.09658E-04  2.12416E-15  7.58551E+01  2.87317E-06  1.0E-07
  1.300E+00  1.28695E-04  1.98302E-15  7.08148E+01  3.20369E-06  1.0E-07
  1.400E+00  1.49255E-04  1.84516E-15  6.58919E+01  3.55538E-06  1.0E-07
  1.500E+00  1.71338E-04  1.71188E-15  6.11322E+01  3.92956E-06  1.0E-07
  1.600E+00  1.94942E-04  1.58416E-15  5.65713E+01  4.32743E-06  1.0E-07
  1.700E+00  2.20070E-04  1.46274E-15  5.22353E+01  4.75019E-06  1.0E-07
  1.800E+00  2.46720E-04  1.34810E-15  4.81415E+01  5.19878E-06  1.0E-07
  1.900E+00  2.74892E-04  1.24052E-15  4.42999E+01  5.67416E-06  1.0E-07
  2.000E+00  3.04586E-04  1.14011E-15  4.07141E+01  6.17708E-06  1.0E-07
  2.100E+00  3.35803E-04  1.04682E-15  3.73828E+01  6.70818E-06  1.0E-07
  2.200E+00  3.68542E-04  9.60507E-16  3.43003E+01  7.26793E-06  1.0E-07
  2.300E+00  4.02802E-04  8.80917E-16  3.14581E+01  7.85669E-06  1.0E-07
  2.400E+00  4.38585E-04  8.07751E-16  2.88453E+01  8.47466E-06  1.0E-07
  2.500E+00  4.75889E-04  7.40662E-16  2.64495E+01  9.12186E-06  1.0E-07
  2.600E+00  5.14715E-04  6.79277E-16  2.42574E+01  9.79818E-06  1.0E-07
  2.700E+00  5.55063E-04  6.23210E-16  2.22552E+01  1.05033E-05  1.0E-07
  2.800E+00  5.96931E-04  5.72074E-16  2.04291E+01  1.12369E-05  1.0E-07
  2.900E+00  6.40321E-04  5.25487E-16  1.87655E+01  1.19984E-05  1.0E-07
  3.000E+00  6.85233E-04  4.83082E-16  1.72512E+01  1.27870E-05  1.0E-07
  3.100E+00  7.31665E-04  4.44505E-16  1.58736E+01  1.36020E-05  1.0E-07
  3.200E+00  7.79618E-04  4.09425E-16  1.46208E+01  1.44425E-05  1.0E-07
  3.300E+00  8.29092E-04  3.77529E-16  1.34818E+01  1.53073E-05  1.0E-07
  3.400E+00  8.80086E-04  3.48528E-16  1.24461E+01  1.61956E-05  1.0E-07
  3.500E+00  9.32601E-04  3.22154E-16  1.15043E+01  1.71060E-05  1.0E-07
  3.600E+00  9.86636E-04  2.98161E-16  1.06475E+01  1.80375E-05  1.0E-07
  3.700E+00  1.04219E-03  2.76323E-16  9.86768E+00  1.89888E-05  1.0E-07
  3.800E+00  1.09927E-03  2.56435E-16  9.15747E+00  1.99586E-05  1.0E-07
  3.900E+00  1.15786E-03  2.38310E-16  8.51021E+00  2.09459E-05  1.0E-07
  4.000E+00  1.21797E-03  2.21778E-16  7.91985E+00  2.19492E-05  1.0E-07
  4.100E+00  1.27961E-03  2.06686E-16  7.38088E+00  2.29675E-05  1.0E-07
  4.200E+00  1.34276E-03  1.92894E-16  6.88837E+00  2.39997E-05  1.0E-07
  4.300E+00  1.40743E-03  1.80277E-16  6.43782E+00  2.50446E-05  1.0E-07
  4.400E+00  1.47362E-03  1.68723E-16  6.02521E+00  2.61012E-05  1.0E-07
  4.500E+00  1.54133E-03  1.58130E-16  5.64691E+00  2.71685E-05  1.0E-07
  4.600E+00  1.61056E-03  1.48405E-16  5.29964E+00  2.82458E-05  1.0E-07
  4.700E+00  1.68131E-03  1.39467E-16  4.98046E+00  2.93320E-05  1.0E-07
  4.800E+00  1.75357E-03  1.31242E-16  4.68673E+00  3.04265E-05  1.0E-07
  4.900E+00  1.82735E-03  1.23662E-16  4.41606E+00  3.15286E-05  1.0E-07
  5.000E+00  1.90265E-03  1.16669E-16  4.16632E+00  3.26377E-05  1.0E-07
  5.100E+00  1.97947E-03  1.10208E-16  3.93558E+00  3.37531E-05  1.0E-07
  5.200E+00  2.05780E-03  1.04230E-16  3.72212E+00  3.48745E-05  1.0E-07
  5.300E+00  2.13765E-03  9.86920E-17  3.52436E+00  3.60013E-05  1.0E-07
  5.400E+00  2.21902E-03  9.35549E-17  3.34091E+00  3.71332E-05  1.0E-07
  5.500E+00  2.30190E-03  8.87830E-17  3.17050E+00  3.82699E-05  1.0E-07
  5.600E+00  2.38630E-03  8.43444E-17  3.01199E+00  3.94110E-05  1.0E-07
  5.700E+00  2.47222E-03  8.02104E-17  2.86437E+00  4.05563E-05  1.0E-07
  5.800E+00  2.55965E-03  7.63550E-17  2.72669E+00  4.17056E-05  1.0E-07
  5.900E+00  2.64859E-03  7.27547E-17  2.59812E+00  4.28586E-05  1.0E-07
  6.000E+00  2.73905E-03  6.93883E-17  2.47790E+00  4.40151E-05  1.0E-07
  6.100E+00  2.83103E-03  6.62367E-17  2.36535E+00  4.51750E-05  1.0E-07
  6.200E+00  2.92452E-03  6.32824E-17  2.25985E+00  4.63381E-05  1.0E-07
  6.300E+00  3.01952E-03  6.05097E-17  2.16084E+00  4.75042E-05  1.0E-07
  6.400E+00  3.11604E-03  5.79043E-17  2.06780E+00  4.86733E-05  1.0E-07
  6.500E+00  3.21407E-03  5.54533E-17  1.98027E+00  4.98450E-05  1.0E-07
  6.600E+00  3.31362E-03  5.31448E-17  1.89783E+00  5.10193E-05  1.0E-07
  6.700E+00  3.41468E-03  5.09681E-17  1.82010E+00  5.21959E-05  1.0E-07
  6.800E+00  3.51725E-03  4.89135E-17  1.74673E+00  5.33748E-05  1.0E-07
  6.900E+00  3.62133E-03  4.69719E-17  1.67740E+00  5.45556E-05  1.0E-07
  7.000E+00  3.72692E-03  4.51354E-17  1.61182E+00  5.57382E-05  1.0E-07
  7.100E+00  3.83403E-03  4.33965E-17  1.54972E+00  5.69224E-05  1.0E-07
  7.200E+00  3.94265E-03  4.17483E-17  1.49086E+00  5.81079E-05  1.0E-07
  7.300E+00  4.05278E-03  4.01847E-17  1.43502E+00  5.92945E-05  1.0E-07
  7.400E+00  4.16442E-03  3.86999E-17  1.38200E+00  6.04818E-05  1.0E-07
  7.500E+00  4.27757E-03  3.72887E-17  1.33160E+00  6.16697E-05  1.0E-07
  7.600E+00  4.39223E-03  3.59464E-17  1.28367E+00  6.28577E-05  1.0E-07
  7.700E+00  4.50840E-03  3.46683E-17  1.23803E+00  6.40457E-05  1.0E-07
  7.800E+00  4.62608E-03  3.34506E-17  1.19454E+00  6.52331E-05  1.0E-07
  7.900E+00  4.74527E-03  3.22895E-17  1.15308E+00  6.64197E-05  1.0E-07
  8.000E+00  4.86597E-03  3.11814E-17  1.11351E+00  6.76050E-05  1.0E-07
  8.100E+00  4.98817E-03  3.01233E-17  1.07572E+00  6.87887E-05  1.0E-07
  8.200E+00  5.11188E-03  2.91121E-17  1.03961E+00  6.99704E-05  1.0E-07
  8.300E+00  5.23711E-03  2.81450E-17  1.00508E+00  7.11496E-05  1.0E-07
  8.400E+00  5.36383E-03  2.72197E-17  9.72032E-01  7.23259E-05  1.0E-07
  8.500E+00  5.49207E-03  2.63336E-17  9.40391E-01  7.34987E-05  1.0E-07
  8.600E+00  5.62181E-03  2.54847E-17  9.10076E-01  7.46676E-05  1.0E-07
  8.700E+00  5.75306E-03  2.46709E-17  8.81014E-01  7.58322E-05  1.0E-07
  8.800E+00  5.88581E-03  2.38903E-17  8.53139E-01  7.69918E-05  1.0E-07
  8.900E+00  6.02007E-03  2.31412E-17  8.26386E-01  7.81460E-05  1.0E-07
  9.000E+00  6.15583E-03  2.24218E-17  8.00698E-01  7.92942E-05  1.0E-07
  9.100E+00  6.29310E-03  2.17308E-17  7.76020E-01  8.04359E-05  1.0E-07
  9.200E+00  6.43187E-03  2.10666E-17  7.52300E-01  8.15705E-05  1.0E-07
  9.300E+00  6.57214E-03  2.04278E-17  7.29492E-01  8.26973E-05  1.0E-07
  9.400E+00  6.71392E-03  1.98134E-17  7.07549E-01  8.38158E-05  1.0E-07
  9.500E+00  6.85720E-03  1.92220E-17  6.86431E-01  8.49255E-05  1.0E-07
  9.600E+00  7.00198E-03  1.86526E-17  6.66097E-01  8.60256E-05  1.0E-07
  9.700E+00  7.14827E-03  1.81042E-17  6.46511E-01  8.71155E-05  1.0E-07
  9.800E+00  7.29605E-03  1.75757E-17  6.27639E-01  8.81946E-05  1.0E-07
  9.900E+00  7.44534E-03  1.70662E-17  6.09447E-01  8.92623E-05  1.0E-07
  1.000E+01  7.59612E-03  1.65750E-17  5.91904E-01  9.03179E-05  1.0E-07
  1.025E+01  7.97965E-03  1.54213E-17  5.50704E-01  9.28993E-05  1.0E-07
  1.050E+01  8.37255E-03  1.43648E-17  5.12978E-01  9.53902E-05  1.0E-07
  1.075E+01  8.77480E-03  1.33957E-17  4.78368E-01  9.77794E-05  1.0E-07
  1.100E+01  9.18641E-03  1.25051E-17  4.46565E-01  1.00056E-04  1.0E-07
  1.125E+01  9.60736E-03  1.16854E-17  4.17295E-01  1.02208E-04  1.0E-07
  1.150E+01  1.00376E-02  1.09300E-17  3.90317E-01  1.04225E-04  1.0E-07
  1.175E+01  1.04773E-02  1.02328E-17  3.65420E-01  1.06093E-04  1.0E-07
  1.200E+01  1.09262E-02  9.58857E-18  3.42414E-01  1.07803E-04  1.0E-07
  1.225E+01  1.13844E-02  8.99259E-18  3.21131E-01  1.09342E-04  1.0E-07
  1.250E+01  1.18520E-02  8.44066E-18  3.01421E-01  1.10697E-04  1.0E-07
  1.275E+01  1.23288E-02  7.92899E-18  2.83149E-01  1.11858E-04  1.0E-07
  1.300E+01  1.28150E-02  7.45419E-18  2.66194E-01  1.12813E-04  1.0E-07
  1.325E+01  1.33104E-02  7.01320E-18  2.50446E-01  1.13550E-04  1.0E-07
  1.350E+01  1.38150E-02  6.60324E-18  2.35806E-01  1.14057E-04  1.0E-07
  1.375E+01  1.43290E-02  6.22182E-18  2.22185E-01  1.14323E-04  1.0E-07
  1.400E+01  1.48521E-02  5.86665E-18  2.09502E-01  1.14337E-04  1.0E-07
  1.425E+01  1.53845E-02  5.53566E-18  1.97682E-01  1.14088E-04  1.0E-07
  1.450E+01  1.59262E-02  5.22699E-18  1.86659E-01  1.13566E-04  1.0E-07
  1.475E+01  1.64770E-02  4.93890E-18  1.76371E-01  1.12760E-04  1.0E-07
  1.500E+01  1.70371E-02  4.66983E-18  1.66763E-01  1.11660E-04  1.0E-07
  1.525E+01  1.76063E-02  4.41834E-18  1.57782E-01  1.10255E-04  1.0E-07
  1.550E+01  1.81848E-02  4.18313E-18  1.49382E-01  1.08538E-04  1.0E-07
