 #
 # Subroutine ELSEPA. Elastic scattering of electrons and positrons
 #                    by neutral atoms and positive ions
 #
 # Projectile: electron
 # Kinetic energy = 1.80000E+01 eV = 6.61488E-01 a.u.
 #
 #  ***  WARNING: Energy is too low.
 #                The reliability of the results is questionable.
 #
 # Element: Si,  Z =  14,  atomic weight = 2.80855E+01 g/mol
 #
 # Nuclear model: Fermi distribution
 #                Average radius = 3.25245E-13 cm
 #                Skin thickness = 5.46000E-14 cm
 #
 # Number of electrons = 14
 #
 # Electron density: Read from file z_014.den   
 #                   Number of data points =  761
 #                   Volume integral = 1.40000E+01
 #
 # Furness-McCarthy exchange potential
 #
 # Total elastic cross section = 1.93210E-15 cm**2 = 6.89967E+01 a0**2
 # 1st transport cross section = 6.09361E-16 cm**2 = 2.17607E+01 a0**2
 # 2nd transport cross section = 9.55884E-16 cm**2 = 3.41352E+01 a0**2
 #
 #
 # Differential cross section:                       MU=(1-COS(THETA))/2
 #
 #  THETA        MU          DCS          DCS        Sherman      error
 #  (deg)                 (cm**2/sr)   (a0**2/sr)    function
 #----------------------------------------------------------------------
  0.000E+00  0.00000E+00  1.85513E-15  6.62479E+01  0.00000E+00  1.0E-07
  1.000E-04  7.61557E-13  1.85513E-15  6.62479E+01  2.70478E-09  1.0E-07
  1.250E-04  1.18994E-12  1.85513E-15  6.62479E+01  3.38098E-09  1.0E-07
  1.500E-04  1.71346E-12  1.85513E-15  6.62479E+01  4.05717E-09  1.0E-07
  1.750E-04  2.33225E-12  1.85513E-15  6.62479E+01  4.73337E-09  1.0E-07
  2.000E-04  3.04617E-12  1.85513E-15  6.62479E+01  5.40957E-09  1.0E-07
  2.250E-04  3.85530E-12  1.85513E-15  6.62479E+01  6.08576E-09  1.0E-07
  2.500E-04  4.75964E-12  1.85513E-15  6.62479E+01  6.76196E-09  1.0E-07
  2.750E-04  5.75917E-12  1.85513E-15  6.62479E+01  7.43815E-09  1.0E-07
  3.000E-04  6.85391E-12  1.85513E-15  6.62479E+01  8.11435E-09  1.0E-07
  3.250E-04  8.04379E-12  1.85513E-15  6.62479E+01  8.79054E-09  1.0E-07
  3.500E-04  9.32893E-12  1.85513E-15  6.62479E+01  9.46674E-09  1.0E-07
  3.750E-04  1.07092E-11  1.85513E-15  6.62479E+01  1.01429E-08  1.0E-07
  4.000E-04  1.21847E-11  1.85513E-15  6.62479E+01  1.08191E-08  1.0E-07
  4.250E-04  1.37554E-11  1.85513E-15  6.62479E+01  1.14953E-08  1.0E-07
  4.500E-04  1.54213E-11  1.85513E-15  6.62479E+01  1.21715E-08  1.0E-07
  4.750E-04  1.71823E-11  1.85513E-15  6.62479E+01  1.28477E-08  1.0E-07
  5.000E-04  1.90386E-11  1.85513E-15  6.62479E+01  1.35239E-08  1.0E-07
  5.250E-04  2.09900E-11  1.85513E-15  6.62479E+01  1.42001E-08  1.0E-07
  5.500E-04  2.30367E-11  1.85513E-15  6.62479E+01  1.48763E-08  1.0E-07
  5.750E-04  2.51785E-11  1.85513E-15  6.62479E+01  1.55525E-08  1.0E-07
  6.000E-04  2.74156E-11  1.85513E-15  6.62479E+01  1.62287E-08  1.0E-07
  6.250E-04  2.97478E-11  1.85513E-15  6.62479E+01  1.69049E-08  1.0E-07
  6.500E-04  3.21752E-11  1.85513E-15  6.62479E+01  1.75811E-08  1.0E-07
  6.750E-04  3.46979E-11  1.85513E-15  6.62479E+01  1.82573E-08  1.0E-07
  7.000E-04  3.73157E-11  1.85513E-15  6.62479E+01  1.89335E-08  1.0E-07
  7.250E-04  4.00286E-11  1.85513E-15  6.62479E+01  1.96097E-08  1.0E-07
  7.500E-04  4.28368E-11  1.85513E-15  6.62479E+01  2.02859E-08  1.0E-07
  7.750E-04  4.57402E-11  1.85513E-15  6.62479E+01  2.09621E-08  1.0E-07
  8.000E-04  4.87388E-11  1.85513E-15  6.62479E+01  2.16383E-08  1.0E-07
  8.250E-04  5.18325E-11  1.85513E-15  6.62479E+01  2.23145E-08  1.0E-07
  8.500E-04  5.50215E-11  1.85513E-15  6.62479E+01  2.29907E-08  1.0E-07
  8.750E-04  5.83057E-11  1.85513E-15  6.62479E+01  2.36669E-08  1.0E-07
  9.000E-04  6.16850E-11  1.85513E-15  6.62479E+01  2.43430E-08  1.0E-07
  9.250E-04  6.51595E-11  1.85513E-15  6.62479E+01  2.50192E-08  1.0E-07
  9.500E-04  6.87293E-11  1.85513E-15  6.62479E+01  2.56954E-08  1.0E-07
  9.750E-04  7.23943E-11  1.85513E-15  6.62479E+01  2.63716E-08  1.0E-07
  1.000E-03  7.61544E-11  1.85513E-15  6.62479E+01  2.70478E-08  1.0E-07
  1.250E-03  1.18991E-10  1.85513E-15  6.62479E+01  3.38098E-08  1.0E-07
  1.500E-03  1.71347E-10  1.85513E-15  6.62479E+01  4.05717E-08  1.0E-07
  1.750E-03  2.33223E-10  1.85513E-15  6.62479E+01  4.73337E-08  1.0E-07
  2.000E-03  3.04617E-10  1.85513E-15  6.62479E+01  5.40957E-08  1.0E-07
  2.250E-03  3.85531E-10  1.85513E-15  6.62479E+01  6.08576E-08  1.0E-07
  2.500E-03  4.75965E-10  1.85513E-15  6.62479E+01  6.76196E-08  1.0E-07
  2.750E-03  5.75917E-10  1.85513E-15  6.62479E+01  7.43815E-08  1.0E-07
  3.000E-03  6.85389E-10  1.85513E-15  6.62479E+01  8.11435E-08  1.0E-07
  3.250E-03  8.04380E-10  1.85513E-15  6.62479E+01  8.79054E-08  1.0E-07
  3.500E-03  9.32891E-10  1.85513E-15  6.62479E+01  9.46674E-08  1.0E-07
  3.750E-03  1.07092E-09  1.85513E-15  6.62479E+01  1.01429E-07  1.0E-07
  4.000E-03  1.21847E-09  1.85513E-15  6.62479E+01  1.08191E-07  1.0E-07
  4.250E-03  1.37554E-09  1.85513E-15  6.62479E+01  1.14953E-07  1.0E-07
  4.500E-03  1.54213E-09  1.85513E-15  6.62479E+01  1.21715E-07  1.0E-07
  4.750E-03  1.71823E-09  1.85513E-15  6.62479E+01  1.28477E-07  1.0E-07
  5.000E-03  1.90386E-09  1.85513E-15  6.62479E+01  1.35239E-07  1.0E-07
  5.250E-03  2.09900E-09  1.85513E-15  6.62479E+01  1.42001E-07  1.0E-07
  5.500E-03  2.30367E-09  1.85513E-15  6.62479E+01  1.48763E-07  1.0E-07
  5.750E-03  2.51785E-09  1.85513E-15  6.62479E+01  1.55525E-07  1.0E-07
  6.000E-03  2.74156E-09  1.85513E-15  6.62479E+01  1.62287E-07  1.0E-07
  6.250E-03  2.97478E-09  1.85513E-15  6.62479E+01  1.69049E-07  1.0E-07
  6.500E-03  3.21752E-09  1.85513E-15  6.62479E+01  1.75811E-07  1.0E-07
  6.750E-03  3.46978E-09  1.85513E-15  6.62479E+01  1.82573E-07  1.0E-07
  7.000E-03  3.73156E-09  1.85513E-15  6.62479E+01  1.89335E-07  1.0E-07
  7.250E-03  4.00286E-09  1.85513E-15  6.62479E+01  1.96097E-07  1.0E-07
  7.500E-03  4.28368E-09  1.85513E-15  6.62479E+01  2.02859E-07  1.0E-07
  7.750E-03  4.57402E-09  1.85513E-15  6.62479E+01  2.09621E-07  1.0E-07
  8.000E-03  4.87388E-09  1.85513E-15  6.62479E+01  2.16383E-07  1.0E-07
  8.250E-03  5.18326E-09  1.85513E-15  6.62479E+01  2.23145E-07  1.0E-07
  8.500E-03  5.50215E-09  1.85513E-15  6.62479E+01  2.29907E-07  1.0E-07
  8.750E-03  5.83057E-09  1.85513E-15  6.62479E+01  2.36669E-07  1.0E-07
  9.000E-03  6.16850E-09  1.85513E-15  6.62479E+01  2.43430E-07  1.0E-07
  9.250E-03  6.51596E-09  1.85513E-15  6.62479E+01  2.50192E-07  1.0E-07
  9.500E-03  6.87293E-09  1.85513E-15  6.62479E+01  2.56954E-07  1.0E-07
  9.750E-03  7.23942E-09  1.85513E-15  6.62479E+01  2.63716E-07  1.0E-07
  1.000E-02  7.61544E-09  1.85513E-15  6.62479E+01  2.70478E-07  1.0E-07
  1.250E-02  1.18991E-08  1.85513E-15  6.62479E+01  3.38098E-07  1.0E-07
  1.500E-02  1.71347E-08  1.85513E-15  6.62479E+01  4.05717E-07  1.0E-07
  1.750E-02  2.33223E-08  1.85513E-15  6.62479E+01  4.73337E-07  1.0E-07
  2.000E-02  3.04617E-08  1.85513E-15  6.62479E+01  5.40957E-07  1.0E-07
  2.250E-02  3.85531E-08  1.85513E-15  6.62479E+01  6.08576E-07  1.0E-07
  2.500E-02  4.75965E-08  1.85513E-15  6.62479E+01  6.76196E-07  1.0E-07
  2.750E-02  5.75917E-08  1.85513E-15  6.62479E+01  7.43816E-07  1.0E-07
  3.000E-02  6.85389E-08  1.85513E-15  6.62479E+01  8.11435E-07  1.0E-07
  3.250E-02  8.04380E-08  1.85513E-15  6.62479E+01  8.79055E-07  1.0E-07
  3.500E-02  9.32891E-08  1.85513E-15  6.62479E+01  9.46675E-07  1.0E-07
  3.750E-02  1.07092E-07  1.85513E-15  6.62479E+01  1.01429E-06  1.0E-07
  4.000E-02  1.21847E-07  1.85513E-15  6.62478E+01  1.08191E-06  1.0E-07
  4.250E-02  1.37554E-07  1.85513E-15  6.62478E+01  1.14953E-06  1.0E-07
  4.500E-02  1.54213E-07  1.85513E-15  6.62478E+01  1.21715E-06  1.0E-07
  4.750E-02  1.71823E-07  1.85513E-15  6.62478E+01  1.28477E-06  1.0E-07
  5.000E-02  1.90386E-07  1.85513E-15  6.62478E+01  1.35239E-06  1.0E-07
  5.250E-02  2.09900E-07  1.85513E-15  6.62478E+01  1.42001E-06  1.0E-07
  5.500E-02  2.30367E-07  1.85513E-15  6.62477E+01  1.48763E-06  1.0E-07
  5.750E-02  2.51785E-07  1.85513E-15  6.62477E+01  1.55525E-06  1.0E-07
  6.000E-02  2.74156E-07  1.85512E-15  6.62477E+01  1.62287E-06  1.0E-07
  6.250E-02  2.97478E-07  1.85512E-15  6.62477E+01  1.69049E-06  1.0E-07
  6.500E-02  3.21752E-07  1.85512E-15  6.62477E+01  1.75811E-06  1.0E-07
  6.750E-02  3.46978E-07  1.85512E-15  6.62476E+01  1.82573E-06  1.0E-07
  7.000E-02  3.73156E-07  1.85512E-15  6.62476E+01  1.89335E-06  1.0E-07
  7.250E-02  4.00286E-07  1.85512E-15  6.62476E+01  1.96097E-06  1.0E-07
  7.500E-02  4.28368E-07  1.85512E-15  6.62476E+01  2.02859E-06  1.0E-07
  7.750E-02  4.57402E-07  1.85512E-15  6.62475E+01  2.09621E-06  1.0E-07
  8.000E-02  4.87388E-07  1.85512E-15  6.62475E+01  2.16383E-06  1.0E-07
  8.250E-02  5.18325E-07  1.85512E-15  6.62475E+01  2.23145E-06  1.0E-07
  8.500E-02  5.50215E-07  1.85512E-15  6.62475E+01  2.29907E-06  1.0E-07
  8.750E-02  5.83057E-07  1.85512E-15  6.62474E+01  2.36669E-06  1.0E-07
  9.000E-02  6.16850E-07  1.85512E-15  6.62474E+01  2.43431E-06  1.0E-07
  9.250E-02  6.51596E-07  1.85512E-15  6.62474E+01  2.50193E-06  1.0E-07
  9.500E-02  6.87293E-07  1.85511E-15  6.62473E+01  2.56955E-06  1.0E-07
  9.750E-02  7.23942E-07  1.85511E-15  6.62473E+01  2.63717E-06  1.0E-07
  1.000E-01  7.61543E-07  1.85511E-15  6.62473E+01  2.70479E-06  1.0E-07
  1.250E-01  1.18991E-06  1.85510E-15  6.62469E+01  3.38100E-06  1.0E-07
  1.500E-01  1.71347E-06  1.85509E-15  6.62464E+01  4.05721E-06  1.0E-07
  1.750E-01  2.33223E-06  1.85507E-15  6.62459E+01  4.73343E-06  1.0E-07
  2.000E-01  3.04617E-06  1.85506E-15  6.62453E+01  5.40966E-06  1.0E-07
  2.250E-01  3.85531E-06  1.85504E-15  6.62445E+01  6.08590E-06  1.0E-07
  2.500E-01  4.75964E-06  1.85501E-15  6.62437E+01  6.76214E-06  1.0E-07
  2.750E-01  5.75916E-06  1.85499E-15  6.62429E+01  7.43840E-06  1.0E-07
  3.000E-01  6.85388E-06  1.85496E-15  6.62419E+01  8.11467E-06  1.0E-07
  3.250E-01  8.04378E-06  1.85493E-15  6.62408E+01  8.79095E-06  1.0E-07
  3.500E-01  9.32888E-06  1.85490E-15  6.62397E+01  9.46725E-06  1.0E-07
  3.750E-01  1.07092E-05  1.85487E-15  6.62385E+01  1.01436E-05  1.0E-07
  4.000E-01  1.21846E-05  1.85483E-15  6.62372E+01  1.08199E-05  1.0E-07
  4.250E-01  1.37553E-05  1.85479E-15  6.62358E+01  1.14962E-05  1.0E-07
  4.500E-01  1.54212E-05  1.85475E-15  6.62343E+01  1.21726E-05  1.0E-07
  4.750E-01  1.71822E-05  1.85471E-15  6.62328E+01  1.28490E-05  1.0E-07
  5.000E-01  1.90385E-05  1.85466E-15  6.62311E+01  1.35254E-05  1.0E-07
  5.250E-01  2.09899E-05  1.85461E-15  6.62294E+01  1.42018E-05  1.0E-07
  5.500E-01  2.30365E-05  1.85456E-15  6.62276E+01  1.48783E-05  1.0E-07
  5.750E-01  2.51783E-05  1.85451E-15  6.62257E+01  1.55548E-05  1.0E-07
  6.000E-01  2.74153E-05  1.85445E-15  6.62237E+01  1.62313E-05  1.0E-07
  6.250E-01  2.97475E-05  1.85440E-15  6.62217E+01  1.69078E-05  1.0E-07
  6.500E-01  3.21749E-05  1.85434E-15  6.62195E+01  1.75843E-05  1.0E-07
  6.750E-01  3.46974E-05  1.85427E-15  6.62173E+01  1.82609E-05  1.0E-07
  7.000E-01  3.73152E-05  1.85421E-15  6.62150E+01  1.89376E-05  1.0E-07
  7.250E-01  4.00281E-05  1.85414E-15  6.62126E+01  1.96142E-05  1.0E-07
  7.500E-01  4.28362E-05  1.85407E-15  6.62101E+01  2.02909E-05  1.0E-07
  7.750E-01  4.57395E-05  1.85400E-15  6.62075E+01  2.09676E-05  1.0E-07
  8.000E-01  4.87380E-05  1.85393E-15  6.62049E+01  2.16443E-05  1.0E-07
  8.250E-01  5.18317E-05  1.85385E-15  6.62021E+01  2.23211E-05  1.0E-07
  8.500E-01  5.50205E-05  1.85377E-15  6.61993E+01  2.29979E-05  1.0E-07
  8.750E-01  5.83045E-05  1.85369E-15  6.61964E+01  2.36748E-05  1.0E-07
  9.000E-01  6.16838E-05  1.85361E-15  6.61934E+01  2.43517E-05  1.0E-07
  9.250E-01  6.51582E-05  1.85352E-15  6.61904E+01  2.50286E-05  1.0E-07
  9.500E-01  6.87277E-05  1.85343E-15  6.61872E+01  2.57056E-05  1.0E-07
  9.750E-01  7.23925E-05  1.85334E-15  6.61840E+01  2.63826E-05  1.0E-07
  1.000E+00  7.61524E-05  1.85325E-15  6.61807E+01  2.70597E-05  1.0E-07
  1.100E+00  9.21439E-05  1.85285E-15  6.61665E+01  2.97684E-05  1.0E-07
  1.200E+00  1.09658E-04  1.85242E-15  6.61511E+01  3.24779E-05  1.0E-07
  1.300E+00  1.28695E-04  1.85195E-15  6.61343E+01  3.51883E-05  1.0E-07
  1.400E+00  1.49255E-04  1.85144E-15  6.61161E+01  3.78996E-05  1.0E-07
  1.500E+00  1.71338E-04  1.85089E-15  6.60967E+01  4.06118E-05  1.0E-07
  1.600E+00  1.94942E-04  1.85031E-15  6.60758E+01  4.33252E-05  1.0E-07
  1.700E+00  2.20070E-04  1.84969E-15  6.60537E+01  4.60397E-05  1.0E-07
  1.800E+00  2.46720E-04  1.84903E-15  6.60302E+01  4.87554E-05  1.0E-07
  1.900E+00  2.74892E-04  1.84834E-15  6.60054E+01  5.14724E-05  1.0E-07
  2.000E+00  3.04586E-04  1.84761E-15  6.59792E+01  5.41907E-05  1.0E-07
  2.100E+00  3.35803E-04  1.84684E-15  6.59518E+01  5.69105E-05  1.0E-07
  2.200E+00  3.68542E-04  1.84603E-15  6.59230E+01  5.96317E-05  1.0E-07
  2.300E+00  4.02802E-04  1.84519E-15  6.58928E+01  6.23546E-05  1.0E-07
  2.400E+00  4.38585E-04  1.84431E-15  6.58614E+01  6.50791E-05  1.0E-07
  2.500E+00  4.75889E-04  1.84339E-15  6.58286E+01  6.78053E-05  1.0E-07
  2.600E+00  5.14715E-04  1.84243E-15  6.57945E+01  7.05333E-05  1.0E-07
  2.700E+00  5.55063E-04  1.84144E-15  6.57591E+01  7.32631E-05  1.0E-07
  2.800E+00  5.96931E-04  1.84041E-15  6.57223E+01  7.59949E-05  1.0E-07
  2.900E+00  6.40321E-04  1.83935E-15  6.56843E+01  7.87287E-05  1.0E-07
  3.000E+00  6.85233E-04  1.83825E-15  6.56449E+01  8.14645E-05  1.0E-07
  3.100E+00  7.31665E-04  1.83711E-15  6.56043E+01  8.42025E-05  1.0E-07
  3.200E+00  7.79618E-04  1.83593E-15  6.55623E+01  8.69427E-05  1.0E-07
  3.300E+00  8.29092E-04  1.83472E-15  6.55190E+01  8.96852E-05  1.0E-07
  3.400E+00  8.80086E-04  1.83347E-15  6.54745E+01  9.24301E-05  1.0E-07
  3.500E+00  9.32601E-04  1.83219E-15  6.54286E+01  9.51774E-05  1.0E-07
  3.600E+00  9.86636E-04  1.83087E-15  6.53814E+01  9.79272E-05  1.0E-07
  3.700E+00  1.04219E-03  1.82951E-15  6.53330E+01  1.00680E-04  1.0E-07
  3.800E+00  1.09927E-03  1.82812E-15  6.52832E+01  1.03435E-04  1.0E-07
  3.900E+00  1.15786E-03  1.82669E-15  6.52322E+01  1.06192E-04  1.0E-07
  4.000E+00  1.21797E-03  1.82522E-15  6.51799E+01  1.08953E-04  1.0E-07
  4.100E+00  1.27961E-03  1.82372E-15  6.51263E+01  1.11717E-04  1.0E-07
  4.200E+00  1.34276E-03  1.82219E-15  6.50715E+01  1.14483E-04  1.0E-07
  4.300E+00  1.40743E-03  1.82061E-15  6.50153E+01  1.17252E-04  1.0E-07
  4.400E+00  1.47362E-03  1.81901E-15  6.49579E+01  1.20025E-04  1.0E-07
  4.500E+00  1.54133E-03  1.81736E-15  6.48992E+01  1.22801E-04  1.0E-07
  4.600E+00  1.61056E-03  1.81569E-15  6.48393E+01  1.25579E-04  1.0E-07
  4.700E+00  1.68131E-03  1.81397E-15  6.47781E+01  1.28362E-04  1.0E-07
  4.800E+00  1.75357E-03  1.81222E-15  6.47157E+01  1.31147E-04  1.0E-07
  4.900E+00  1.82735E-03  1.81044E-15  6.46520E+01  1.33936E-04  1.0E-07
  5.000E+00  1.90265E-03  1.80862E-15  6.45870E+01  1.36729E-04  1.0E-07
  5.100E+00  1.97947E-03  1.80677E-15  6.45209E+01  1.39525E-04  1.0E-07
  5.200E+00  2.05780E-03  1.80488E-15  6.44534E+01  1.42325E-04  1.0E-07
  5.300E+00  2.13765E-03  1.80296E-15  6.43848E+01  1.45129E-04  1.0E-07
  5.400E+00  2.21902E-03  1.80100E-15  6.43149E+01  1.47936E-04  1.0E-07
  5.500E+00  2.30190E-03  1.79901E-15  6.42438E+01  1.50748E-04  1.0E-07
  5.600E+00  2.38630E-03  1.79698E-15  6.41715E+01  1.53563E-04  1.0E-07
  5.700E+00  2.47222E-03  1.79492E-15  6.40979E+01  1.56383E-04  1.0E-07
  5.800E+00  2.55965E-03  1.79283E-15  6.40232E+01  1.59206E-04  1.0E-07
  5.900E+00  2.64859E-03  1.79070E-15  6.39472E+01  1.62034E-04  1.0E-07
  6.000E+00  2.73905E-03  1.78854E-15  6.38701E+01  1.64866E-04  1.0E-07
  6.100E+00  2.83103E-03  1.78635E-15  6.37917E+01  1.67702E-04  1.0E-07
  6.200E+00  2.92452E-03  1.78412E-15  6.37121E+01  1.70543E-04  1.0E-07
  6.300E+00  3.01952E-03  1.78186E-15  6.36314E+01  1.73389E-04  1.0E-07
  6.400E+00  3.11604E-03  1.77957E-15  6.35495E+01  1.76239E-04  1.0E-07
  6.500E+00  3.21407E-03  1.77724E-15  6.34664E+01  1.79093E-04  1.0E-07
  6.600E+00  3.31362E-03  1.77488E-15  6.33821E+01  1.81952E-04  1.0E-07
  6.700E+00  3.41468E-03  1.77249E-15  6.32966E+01  1.84817E-04  1.0E-07
  6.800E+00  3.51725E-03  1.77006E-15  6.32100E+01  1.87686E-04  1.0E-07
  6.900E+00  3.62133E-03  1.76760E-15  6.31223E+01  1.90560E-04  1.0E-07
  7.000E+00  3.72692E-03  1.76511E-15  6.30334E+01  1.93439E-04  1.0E-07
  7.100E+00  3.83403E-03  1.76259E-15  6.29433E+01  1.96323E-04  1.0E-07
  7.200E+00  3.94265E-03  1.76004E-15  6.28521E+01  1.99212E-04  1.0E-07
  7.300E+00  4.05278E-03  1.75745E-15  6.27598E+01  2.02107E-04  1.0E-07
  7.400E+00  4.16442E-03  1.75483E-15  6.26663E+01  2.05007E-04  1.0E-07
  7.500E+00  4.27757E-03  1.75219E-15  6.25717E+01  2.07912E-04  1.0E-07
  7.600E+00  4.39223E-03  1.74951E-15  6.24760E+01  2.10823E-04  1.0E-07
  7.700E+00  4.50840E-03  1.74679E-15  6.23792E+01  2.13739E-04  1.0E-07
  7.800E+00  4.62608E-03  1.74405E-15  6.22812E+01  2.16661E-04  1.0E-07
  7.900E+00  4.74527E-03  1.74128E-15  6.21822E+01  2.19589E-04  1.0E-07
  8.000E+00  4.86597E-03  1.73848E-15  6.20821E+01  2.22523E-04  1.0E-07
  8.100E+00  4.98817E-03  1.73564E-15  6.19809E+01  2.25462E-04  1.0E-07
  8.200E+00  5.11188E-03  1.73278E-15  6.18786E+01  2.28408E-04  1.0E-07
  8.300E+00  5.23711E-03  1.72988E-15  6.17752E+01  2.31360E-04  1.0E-07
  8.400E+00  5.36383E-03  1.72696E-15  6.16708E+01  2.34317E-04  1.0E-07
  8.500E+00  5.49207E-03  1.72400E-15  6.15652E+01  2.37281E-04  1.0E-07
  8.600E+00  5.62181E-03  1.72102E-15  6.14587E+01  2.40251E-04  1.0E-07
  8.700E+00  5.75306E-03  1.71800E-15  6.13511E+01  2.43228E-04  1.0E-07
  8.800E+00  5.88581E-03  1.71496E-15  6.12424E+01  2.46211E-04  1.0E-07
  8.900E+00  6.02007E-03  1.71189E-15  6.11327E+01  2.49200E-04  1.0E-07
  9.000E+00  6.15583E-03  1.70879E-15  6.10219E+01  2.52197E-04  1.0E-07
  9.100E+00  6.29310E-03  1.70566E-15  6.09102E+01  2.55200E-04  1.0E-07
  9.200E+00  6.43187E-03  1.70250E-15  6.07974E+01  2.58209E-04  1.0E-07
  9.300E+00  6.57214E-03  1.69931E-15  6.06836E+01  2.61226E-04  1.0E-07
  9.400E+00  6.71392E-03  1.69610E-15  6.05688E+01  2.64249E-04  1.0E-07
  9.500E+00  6.85720E-03  1.69286E-15  6.04530E+01  2.67279E-04  1.0E-07
  9.600E+00  7.00198E-03  1.68959E-15  6.03362E+01  2.70317E-04  1.0E-07
  9.700E+00  7.14827E-03  1.68629E-15  6.02184E+01  2.73362E-04  1.0E-07
  9.800E+00  7.29605E-03  1.68296E-15  6.00997E+01  2.76414E-04  1.0E-07
  9.900E+00  7.44534E-03  1.67961E-15  5.99799E+01  2.79473E-04  1.0E-07
  1.000E+01  7.59612E-03  1.67623E-15  5.98592E+01  2.82540E-04  1.0E-07
  1.025E+01  7.97965E-03  1.66766E-15  5.95533E+01  2.90240E-04  1.0E-07
  1.050E+01  8.37255E-03  1.65893E-15  5.92415E+01  2.97988E-04  1.0E-07
  1.075E+01  8.77480E-03  1.65004E-15  5.89239E+01  3.05785E-04  1.0E-07
  1.100E+01  9.18641E-03  1.64099E-15  5.86007E+01  3.13634E-04  1.0E-07
  1.125E+01  9.60736E-03  1.63178E-15  5.82719E+01  3.21535E-04  1.0E-07
  1.150E+01  1.00376E-02  1.62242E-15  5.79378E+01  3.29489E-04  1.0E-07
  1.175E+01  1.04773E-02  1.61292E-15  5.75983E+01  3.37498E-04  1.0E-07
  1.200E+01  1.09262E-02  1.60326E-15  5.72536E+01  3.45564E-04  1.0E-07
  1.225E+01  1.13844E-02  1.59347E-15  5.69038E+01  3.53687E-04  1.0E-07
  1.250E+01  1.18520E-02  1.58354E-15  5.65491E+01  3.61869E-04  1.0E-07
  1.275E+01  1.23288E-02  1.57347E-15  5.61896E+01  3.70112E-04  1.0E-07
  1.300E+01  1.28150E-02  1.56327E-15  5.58253E+01  3.78417E-04  1.0E-07
  1.325E+01  1.33104E-02  1.55294E-15  5.54565E+01  3.86785E-04  1.0E-07
  1.350E+01  1.38150E-02  1.54249E-15  5.50832E+01  3.95217E-04  1.0E-07
  1.375E+01  1.43290E-02  1.53191E-15  5.47056E+01  4.03717E-04  1.0E-07
  1.400E+01  1.48521E-02  1.52122E-15  5.43238E+01  4.12283E-04  1.0E-07
  1.425E+01  1.53845E-02  1.51041E-15  5.39378E+01  4.20919E-04  1.0E-07
  1.450E+01  1.59262E-02  1.49950E-15  5.35480E+01  4.29626E-04  1.0E-07
  1.475E+01  1.64770E-02  1.48847E-15  5.31543E+01  4.38405E-04  1.0E-07
  1.500E+01  1.70371E-02  1.47734E-15  5.27569E+01  4.47258E-04  1.0E-07
