 #
 # Subroutine ELSEPA. Elastic scattering of electrons and positrons
 #                    by neutral atoms and positive ions
 #
 # Projectile: electron
 # Kinetic energy = 2.00000E+03 eV = 7.34987E+01 a.u.
 #
 # Element: Si,  Z =  14,  atomic weight = 2.80855E+01 g/mol
 #
 # Nuclear model: Fermi distribution
 #                Average radius = 3.25245E-13 cm
 #                Skin thickness = 5.46000E-14 cm
 #
 # Number of electrons = 14
 #
 # Electron density: Read from file z_014.den   
 #                   Number of data points =  761
 #                   Volume integral = 1.40000E+01
 #
 # Furness-McCarthy exchange potential
 #
 # Total elastic cross section = 8.26971E-17 cm**2 = 2.95317E+00 a0**2
 # 1st transport cross section = 4.61916E-18 cm**2 = 1.64953E-01 a0**2
 # 2nd transport cross section = 8.98656E-18 cm**2 = 3.20916E-01 a0**2
 #
 #
 # Differential cross section:                       MU=(1-COS(THETA))/2
 #
 #  THETA        MU          DCS          DCS        Sherman      error
 #  (deg)                 (cm**2/sr)   (a0**2/sr)    function
 #----------------------------------------------------------------------
  0.000E+00  0.00000E+00  2.73328E-15  9.76072E+01  0.00000E+00  1.0E-07
  1.000E-04  7.61557E-13  2.73328E-15  9.76072E+01  2.17998E-10  1.0E-07
  1.250E-04  1.18994E-12  2.73328E-15  9.76072E+01  2.72498E-10  1.0E-07
  1.500E-04  1.71346E-12  2.73328E-15  9.76072E+01  3.26997E-10  1.0E-07
  1.750E-04  2.33225E-12  2.73328E-15  9.76072E+01  3.81497E-10  1.0E-07
  2.000E-04  3.04617E-12  2.73328E-15  9.76072E+01  4.35996E-10  1.0E-07
  2.250E-04  3.85530E-12  2.73328E-15  9.76072E+01  4.90496E-10  1.0E-07
  2.500E-04  4.75964E-12  2.73328E-15  9.76072E+01  5.44995E-10  1.0E-07
  2.750E-04  5.75917E-12  2.73328E-15  9.76072E+01  5.99495E-10  1.0E-07
  3.000E-04  6.85391E-12  2.73328E-15  9.76072E+01  6.53994E-10  1.0E-07
  3.250E-04  8.04379E-12  2.73328E-15  9.76072E+01  7.08494E-10  1.0E-07
  3.500E-04  9.32893E-12  2.73328E-15  9.76072E+01  7.62993E-10  1.0E-07
  3.750E-04  1.07092E-11  2.73328E-15  9.76072E+01  8.17493E-10  1.0E-07
  4.000E-04  1.21847E-11  2.73328E-15  9.76072E+01  8.71993E-10  1.0E-07
  4.250E-04  1.37554E-11  2.73328E-15  9.76072E+01  9.26492E-10  1.0E-07
  4.500E-04  1.54213E-11  2.73328E-15  9.76072E+01  9.80992E-10  1.0E-07
  4.750E-04  1.71823E-11  2.73328E-15  9.76072E+01  1.03549E-09  1.0E-07
  5.000E-04  1.90386E-11  2.73328E-15  9.76072E+01  1.08999E-09  1.0E-07
  5.250E-04  2.09900E-11  2.73328E-15  9.76072E+01  1.14449E-09  1.0E-07
  5.500E-04  2.30367E-11  2.73328E-15  9.76072E+01  1.19899E-09  1.0E-07
  5.750E-04  2.51785E-11  2.73328E-15  9.76072E+01  1.25349E-09  1.0E-07
  6.000E-04  2.74156E-11  2.73328E-15  9.76072E+01  1.30799E-09  1.0E-07
  6.250E-04  2.97478E-11  2.73328E-15  9.76072E+01  1.36249E-09  1.0E-07
  6.500E-04  3.21752E-11  2.73328E-15  9.76072E+01  1.41699E-09  1.0E-07
  6.750E-04  3.46979E-11  2.73328E-15  9.76072E+01  1.47149E-09  1.0E-07
  7.000E-04  3.73157E-11  2.73328E-15  9.76072E+01  1.52599E-09  1.0E-07
  7.250E-04  4.00286E-11  2.73328E-15  9.76072E+01  1.58049E-09  1.0E-07
  7.500E-04  4.28368E-11  2.73328E-15  9.76072E+01  1.63499E-09  1.0E-07
  7.750E-04  4.57402E-11  2.73328E-15  9.76072E+01  1.68949E-09  1.0E-07
  8.000E-04  4.87388E-11  2.73328E-15  9.76072E+01  1.74399E-09  1.0E-07
  8.250E-04  5.18325E-11  2.73328E-15  9.76072E+01  1.79848E-09  1.0E-07
  8.500E-04  5.50215E-11  2.73328E-15  9.76072E+01  1.85298E-09  1.0E-07
  8.750E-04  5.83057E-11  2.73328E-15  9.76072E+01  1.90748E-09  1.0E-07
  9.000E-04  6.16850E-11  2.73328E-15  9.76072E+01  1.96198E-09  1.0E-07
  9.250E-04  6.51595E-11  2.73328E-15  9.76072E+01  2.01648E-09  1.0E-07
  9.500E-04  6.87293E-11  2.73328E-15  9.76072E+01  2.07098E-09  1.0E-07
  9.750E-04  7.23943E-11  2.73328E-15  9.76072E+01  2.12548E-09  1.0E-07
  1.000E-03  7.61544E-11  2.73328E-15  9.76072E+01  2.17998E-09  1.0E-07
  1.250E-03  1.18991E-10  2.73328E-15  9.76072E+01  2.72498E-09  1.0E-07
  1.500E-03  1.71347E-10  2.73328E-15  9.76072E+01  3.26997E-09  1.0E-07
  1.750E-03  2.33223E-10  2.73328E-15  9.76072E+01  3.81497E-09  1.0E-07
  2.000E-03  3.04617E-10  2.73328E-15  9.76072E+01  4.35996E-09  1.0E-07
  2.250E-03  3.85531E-10  2.73328E-15  9.76072E+01  4.90496E-09  1.0E-07
  2.500E-03  4.75965E-10  2.73328E-15  9.76072E+01  5.44995E-09  1.0E-07
  2.750E-03  5.75917E-10  2.73328E-15  9.76072E+01  5.99495E-09  1.0E-07
  3.000E-03  6.85389E-10  2.73328E-15  9.76072E+01  6.53995E-09  1.0E-07
  3.250E-03  8.04380E-10  2.73328E-15  9.76072E+01  7.08494E-09  1.0E-07
  3.500E-03  9.32891E-10  2.73328E-15  9.76072E+01  7.62994E-09  1.0E-07
  3.750E-03  1.07092E-09  2.73328E-15  9.76071E+01  8.17493E-09  1.0E-07
  4.000E-03  1.21847E-09  2.73328E-15  9.76071E+01  8.71993E-09  1.0E-07
  4.250E-03  1.37554E-09  2.73328E-15  9.76071E+01  9.26493E-09  1.0E-07
  4.500E-03  1.54213E-09  2.73328E-15  9.76071E+01  9.80992E-09  1.0E-07
  4.750E-03  1.71823E-09  2.73328E-15  9.76071E+01  1.03549E-08  1.0E-07
  5.000E-03  1.90386E-09  2.73328E-15  9.76071E+01  1.08999E-08  1.0E-07
  5.250E-03  2.09900E-09  2.73328E-15  9.76071E+01  1.14449E-08  1.0E-07
  5.500E-03  2.30367E-09  2.73328E-15  9.76070E+01  1.19899E-08  1.0E-07
  5.750E-03  2.51785E-09  2.73327E-15  9.76070E+01  1.25349E-08  1.0E-07
  6.000E-03  2.74156E-09  2.73327E-15  9.76070E+01  1.30799E-08  1.0E-07
  6.250E-03  2.97478E-09  2.73327E-15  9.76070E+01  1.36249E-08  1.0E-07
  6.500E-03  3.21752E-09  2.73327E-15  9.76070E+01  1.41699E-08  1.0E-07
  6.750E-03  3.46978E-09  2.73327E-15  9.76069E+01  1.47149E-08  1.0E-07
  7.000E-03  3.73156E-09  2.73327E-15  9.76069E+01  1.52599E-08  1.0E-07
  7.250E-03  4.00286E-09  2.73327E-15  9.76069E+01  1.58049E-08  1.0E-07
  7.500E-03  4.28368E-09  2.73327E-15  9.76069E+01  1.63499E-08  1.0E-07
  7.750E-03  4.57402E-09  2.73327E-15  9.76069E+01  1.68949E-08  1.0E-07
  8.000E-03  4.87388E-09  2.73327E-15  9.76068E+01  1.74399E-08  1.0E-07
  8.250E-03  5.18326E-09  2.73327E-15  9.76068E+01  1.79849E-08  1.0E-07
  8.500E-03  5.50215E-09  2.73327E-15  9.76068E+01  1.85299E-08  1.0E-07
  8.750E-03  5.83057E-09  2.73327E-15  9.76068E+01  1.90749E-08  1.0E-07
  9.000E-03  6.16850E-09  2.73327E-15  9.76067E+01  1.96199E-08  1.0E-07
  9.250E-03  6.51596E-09  2.73327E-15  9.76067E+01  2.01649E-08  1.0E-07
  9.500E-03  6.87293E-09  2.73326E-15  9.76067E+01  2.07099E-08  1.0E-07
  9.750E-03  7.23942E-09  2.73326E-15  9.76066E+01  2.12549E-08  1.0E-07
  1.000E-02  7.61544E-09  2.73326E-15  9.76066E+01  2.17999E-08  1.0E-07
  1.250E-02  1.18991E-08  2.73325E-15  9.76063E+01  2.72499E-08  1.0E-07
  1.500E-02  1.71347E-08  2.73324E-15  9.76058E+01  3.27000E-08  1.0E-07
  1.750E-02  2.33223E-08  2.73323E-15  9.76053E+01  3.81501E-08  1.0E-07
  2.000E-02  3.04617E-08  2.73321E-15  9.76047E+01  4.36002E-08  1.0E-07
  2.250E-02  3.85531E-08  2.73319E-15  9.76041E+01  4.90504E-08  1.0E-07
  2.500E-02  4.75965E-08  2.73317E-15  9.76033E+01  5.45007E-08  1.0E-07
  2.750E-02  5.75917E-08  2.73315E-15  9.76025E+01  5.99510E-08  1.0E-07
  3.000E-02  6.85389E-08  2.73312E-15  9.76016E+01  6.54014E-08  1.0E-07
  3.250E-02  8.04380E-08  2.73310E-15  9.76006E+01  7.08519E-08  1.0E-07
  3.500E-02  9.32891E-08  2.73307E-15  9.75996E+01  7.63025E-08  1.0E-07
  3.750E-02  1.07092E-07  2.73303E-15  9.75984E+01  8.17532E-08  1.0E-07
  4.000E-02  1.21847E-07  2.73300E-15  9.75972E+01  8.72040E-08  1.0E-07
  4.250E-02  1.37554E-07  2.73296E-15  9.75959E+01  9.26549E-08  1.0E-07
  4.500E-02  1.54213E-07  2.73293E-15  9.75946E+01  9.81059E-08  1.0E-07
  4.750E-02  1.71823E-07  2.73289E-15  9.75931E+01  1.03557E-07  1.0E-07
  5.000E-02  1.90386E-07  2.73284E-15  9.75916E+01  1.09008E-07  1.0E-07
  5.250E-02  2.09900E-07  2.73280E-15  9.75900E+01  1.14460E-07  1.0E-07
  5.500E-02  2.30367E-07  2.73275E-15  9.75883E+01  1.19911E-07  1.0E-07
  5.750E-02  2.51785E-07  2.73270E-15  9.75866E+01  1.25363E-07  1.0E-07
  6.000E-02  2.74156E-07  2.73265E-15  9.75847E+01  1.30815E-07  1.0E-07
  6.250E-02  2.97478E-07  2.73260E-15  9.75828E+01  1.36267E-07  1.0E-07
  6.500E-02  3.21752E-07  2.73254E-15  9.75808E+01  1.41719E-07  1.0E-07
  6.750E-02  3.46978E-07  2.73248E-15  9.75787E+01  1.47171E-07  1.0E-07
  7.000E-02  3.73156E-07  2.73242E-15  9.75766E+01  1.52624E-07  1.0E-07
  7.250E-02  4.00286E-07  2.73236E-15  9.75744E+01  1.58077E-07  1.0E-07
  7.500E-02  4.28368E-07  2.73230E-15  9.75721E+01  1.63530E-07  1.0E-07
  7.750E-02  4.57402E-07  2.73223E-15  9.75697E+01  1.68983E-07  1.0E-07
  8.000E-02  4.87388E-07  2.73216E-15  9.75672E+01  1.74436E-07  1.0E-07
  8.250E-02  5.18325E-07  2.73209E-15  9.75647E+01  1.79890E-07  1.0E-07
  8.500E-02  5.50215E-07  2.73202E-15  9.75621E+01  1.85344E-07  1.0E-07
  8.750E-02  5.83057E-07  2.73194E-15  9.75594E+01  1.90798E-07  1.0E-07
  9.000E-02  6.16850E-07  2.73186E-15  9.75566E+01  1.96252E-07  1.0E-07
  9.250E-02  6.51596E-07  2.73178E-15  9.75537E+01  2.01707E-07  1.0E-07
  9.500E-02  6.87293E-07  2.73170E-15  9.75508E+01  2.07161E-07  1.0E-07
  9.750E-02  7.23942E-07  2.73162E-15  9.75478E+01  2.12617E-07  1.0E-07
  1.000E-01  7.61543E-07  2.73153E-15  9.75447E+01  2.18072E-07  1.0E-07
  1.250E-01  1.18991E-06  2.73055E-15  9.75096E+01  2.72642E-07  1.0E-07
  1.500E-01  1.71347E-06  2.72934E-15  9.74666E+01  3.27246E-07  1.0E-07
  1.750E-01  2.33223E-06  2.72792E-15  9.74160E+01  3.81892E-07  1.0E-07
  2.000E-01  3.04617E-06  2.72629E-15  9.73575E+01  4.36586E-07  1.0E-07
  2.250E-01  3.85531E-06  2.72443E-15  9.72913E+01  4.91336E-07  1.0E-07
  2.500E-01  4.75964E-06  2.72236E-15  9.72174E+01  5.46148E-07  1.0E-07
  2.750E-01  5.75916E-06  2.72008E-15  9.71358E+01  6.01029E-07  1.0E-07
  3.000E-01  6.85388E-06  2.71758E-15  9.70466E+01  6.55987E-07  1.0E-07
  3.250E-01  8.04378E-06  2.71487E-15  9.69497E+01  7.11027E-07  1.0E-07
  3.500E-01  9.32888E-06  2.71194E-15  9.68452E+01  7.66157E-07  1.0E-07
  3.750E-01  1.07092E-05  2.70880E-15  9.67331E+01  8.21385E-07  1.0E-07
  4.000E-01  1.21846E-05  2.70546E-15  9.66136E+01  8.76716E-07  1.0E-07
  4.250E-01  1.37553E-05  2.70190E-15  9.64865E+01  9.32159E-07  1.0E-07
  4.500E-01  1.54212E-05  2.69813E-15  9.63520E+01  9.87719E-07  1.0E-07
  4.750E-01  1.71822E-05  2.69416E-15  9.62100E+01  1.04340E-06  1.0E-07
  5.000E-01  1.90385E-05  2.68997E-15  9.60607E+01  1.09922E-06  1.0E-07
  5.250E-01  2.09899E-05  2.68559E-15  9.59041E+01  1.15518E-06  1.0E-07
  5.500E-01  2.30365E-05  2.68100E-15  9.57403E+01  1.21128E-06  1.0E-07
  5.750E-01  2.51783E-05  2.67621E-15  9.55692E+01  1.26753E-06  1.0E-07
  6.000E-01  2.74153E-05  2.67122E-15  9.53910E+01  1.32395E-06  1.0E-07
  6.250E-01  2.97475E-05  2.66603E-15  9.52056E+01  1.38053E-06  1.0E-07
  6.500E-01  3.21749E-05  2.66064E-15  9.50133E+01  1.43728E-06  1.0E-07
  6.750E-01  3.46974E-05  2.65506E-15  9.48139E+01  1.49422E-06  1.0E-07
  7.000E-01  3.73152E-05  2.64928E-15  9.46077E+01  1.55135E-06  1.0E-07
  7.250E-01  4.00281E-05  2.64332E-15  9.43945E+01  1.60867E-06  1.0E-07
  7.500E-01  4.28362E-05  2.63716E-15  9.41747E+01  1.66619E-06  1.0E-07
  7.750E-01  4.57395E-05  2.63081E-15  9.39481E+01  1.72392E-06  1.0E-07
  8.000E-01  4.87380E-05  2.62428E-15  9.37148E+01  1.78187E-06  1.0E-07
  8.250E-01  5.18317E-05  2.61757E-15  9.34750E+01  1.84004E-06  1.0E-07
  8.500E-01  5.50205E-05  2.61067E-15  9.32287E+01  1.89844E-06  1.0E-07
  8.750E-01  5.83045E-05  2.60359E-15  9.29760E+01  1.95708E-06  1.0E-07
  9.000E-01  6.16838E-05  2.59634E-15  9.27169E+01  2.01597E-06  1.0E-07
  9.250E-01  6.51582E-05  2.58891E-15  9.24516E+01  2.07510E-06  1.0E-07
  9.500E-01  6.87277E-05  2.58130E-15  9.21801E+01  2.13450E-06  1.0E-07
  9.750E-01  7.23925E-05  2.57353E-15  9.19024E+01  2.19416E-06  1.0E-07
  1.000E+00  7.61524E-05  2.56559E-15  9.16188E+01  2.25410E-06  1.0E-07
  1.100E+00  9.21439E-05  2.53218E-15  9.04259E+01  2.49674E-06  1.0E-07
  1.200E+00  1.09658E-04  2.49628E-15  8.91438E+01  2.74434E-06  1.0E-07
  1.300E+00  1.28695E-04  2.45805E-15  8.77784E+01  2.99737E-06  1.0E-07
  1.400E+00  1.49255E-04  2.41766E-15  8.63361E+01  3.25632E-06  1.0E-07
  1.500E+00  1.71338E-04  2.37529E-15  8.48230E+01  3.52166E-06  1.0E-07
  1.600E+00  1.94942E-04  2.33112E-15  8.32458E+01  3.79387E-06  1.0E-07
  1.700E+00  2.20070E-04  2.28534E-15  8.16109E+01  4.07346E-06  1.0E-07
  1.800E+00  2.46720E-04  2.23813E-15  7.99251E+01  4.36092E-06  1.0E-07
  1.900E+00  2.74892E-04  2.18968E-15  7.81948E+01  4.65675E-06  1.0E-07
  2.000E+00  3.04586E-04  2.14016E-15  7.64265E+01  4.96146E-06  1.0E-07
  2.100E+00  3.35803E-04  2.08976E-15  7.46267E+01  5.27557E-06  1.0E-07
  2.200E+00  3.68542E-04  2.03865E-15  7.28015E+01  5.59960E-06  1.0E-07
  2.300E+00  4.02802E-04  1.98700E-15  7.09570E+01  5.93409E-06  1.0E-07
  2.400E+00  4.38585E-04  1.93497E-15  6.90989E+01  6.27957E-06  1.0E-07
  2.500E+00  4.75889E-04  1.88271E-15  6.72328E+01  6.63658E-06  1.0E-07
  2.600E+00  5.14715E-04  1.83038E-15  6.53640E+01  7.00567E-06  1.0E-07
  2.700E+00  5.55063E-04  1.77811E-15  6.34976E+01  7.38740E-06  1.0E-07
  2.800E+00  5.96931E-04  1.72604E-15  6.16381E+01  7.78233E-06  1.0E-07
  2.900E+00  6.40321E-04  1.67429E-15  5.97900E+01  8.19103E-06  1.0E-07
  3.000E+00  6.85233E-04  1.62297E-15  5.79573E+01  8.61407E-06  1.0E-07
  3.100E+00  7.31665E-04  1.57219E-15  5.61438E+01  9.05204E-06  1.0E-07
  3.200E+00  7.79618E-04  1.52204E-15  5.43529E+01  9.50552E-06  1.0E-07
  3.300E+00  8.29092E-04  1.47260E-15  5.25877E+01  9.97509E-06  1.0E-07
  3.400E+00  8.80086E-04  1.42397E-15  5.08509E+01  1.04614E-05  1.0E-07
  3.500E+00  9.32601E-04  1.37620E-15  4.91451E+01  1.09649E-05  1.0E-07
  3.600E+00  9.86636E-04  1.32936E-15  4.74724E+01  1.14864E-05  1.0E-07
  3.700E+00  1.04219E-03  1.28350E-15  4.58347E+01  1.20263E-05  1.0E-07
  3.800E+00  1.09927E-03  1.23867E-15  4.42336E+01  1.25854E-05  1.0E-07
  3.900E+00  1.15786E-03  1.19490E-15  4.26705E+01  1.31642E-05  1.0E-07
  4.000E+00  1.21797E-03  1.15222E-15  4.11465E+01  1.37633E-05  1.0E-07
  4.100E+00  1.27961E-03  1.11066E-15  3.96624E+01  1.43833E-05  1.0E-07
  4.200E+00  1.34276E-03  1.07024E-15  3.82190E+01  1.50249E-05  1.0E-07
  4.300E+00  1.40743E-03  1.03097E-15  3.68167E+01  1.56886E-05  1.0E-07
  4.400E+00  1.47362E-03  9.92864E-16  3.54558E+01  1.63750E-05  1.0E-07
  4.500E+00  1.54133E-03  9.55916E-16  3.41364E+01  1.70848E-05  1.0E-07
  4.600E+00  1.61056E-03  9.20128E-16  3.28584E+01  1.78186E-05  1.0E-07
  4.700E+00  1.68131E-03  8.85495E-16  3.16216E+01  1.85768E-05  1.0E-07
  4.800E+00  1.75357E-03  8.52009E-16  3.04258E+01  1.93601E-05  1.0E-07
  4.900E+00  1.82735E-03  8.19656E-16  2.92705E+01  2.01691E-05  1.0E-07
  5.000E+00  1.90265E-03  7.88423E-16  2.81551E+01  2.10043E-05  1.0E-07
  5.100E+00  1.97947E-03  7.58292E-16  2.70791E+01  2.18663E-05  1.0E-07
  5.200E+00  2.05780E-03  7.29243E-16  2.60418E+01  2.27556E-05  1.0E-07
  5.300E+00  2.13765E-03  7.01256E-16  2.50423E+01  2.36727E-05  1.0E-07
  5.400E+00  2.21902E-03  6.74307E-16  2.40799E+01  2.46181E-05  1.0E-07
  5.500E+00  2.30190E-03  6.48371E-16  2.31538E+01  2.55924E-05  1.0E-07
  5.600E+00  2.38630E-03  6.23424E-16  2.22629E+01  2.65959E-05  1.0E-07
  5.700E+00  2.47222E-03  5.99440E-16  2.14064E+01  2.76292E-05  1.0E-07
  5.800E+00  2.55965E-03  5.76391E-16  2.05833E+01  2.86927E-05  1.0E-07
  5.900E+00  2.64859E-03  5.54250E-16  1.97926E+01  2.97867E-05  1.0E-07
  6.000E+00  2.73905E-03  5.32989E-16  1.90334E+01  3.09117E-05  1.0E-07
  6.100E+00  2.83103E-03  5.12580E-16  1.83046E+01  3.20681E-05  1.0E-07
  6.200E+00  2.92452E-03  4.92996E-16  1.76052E+01  3.32562E-05  1.0E-07
  6.300E+00  3.01952E-03  4.74209E-16  1.69343E+01  3.44762E-05  1.0E-07
  6.400E+00  3.11604E-03  4.56190E-16  1.62909E+01  3.57286E-05  1.0E-07
  6.500E+00  3.21407E-03  4.38914E-16  1.56739E+01  3.70135E-05  1.0E-07
  6.600E+00  3.31362E-03  4.22352E-16  1.50825E+01  3.83312E-05  1.0E-07
  6.700E+00  3.41468E-03  4.06478E-16  1.45156E+01  3.96819E-05  1.0E-07
  6.800E+00  3.51725E-03  3.91266E-16  1.39724E+01  4.10658E-05  1.0E-07
  6.900E+00  3.62133E-03  3.76691E-16  1.34519E+01  4.24830E-05  1.0E-07
  7.000E+00  3.72692E-03  3.62727E-16  1.29532E+01  4.39337E-05  1.0E-07
  7.100E+00  3.83403E-03  3.49350E-16  1.24755E+01  4.54178E-05  1.0E-07
  7.200E+00  3.94265E-03  3.36537E-16  1.20180E+01  4.69356E-05  1.0E-07
  7.300E+00  4.05278E-03  3.24265E-16  1.15797E+01  4.84870E-05  1.0E-07
  7.400E+00  4.16442E-03  3.12511E-16  1.11600E+01  5.00721E-05  1.0E-07
  7.500E+00  4.27757E-03  3.01254E-16  1.07580E+01  5.16907E-05  1.0E-07
  7.600E+00  4.39223E-03  2.90472E-16  1.03729E+01  5.33428E-05  1.0E-07
  7.700E+00  4.50840E-03  2.80146E-16  1.00042E+01  5.50285E-05  1.0E-07
  7.800E+00  4.62608E-03  2.70256E-16  9.65101E+00  5.67474E-05  1.0E-07
  7.900E+00  4.74527E-03  2.60783E-16  9.31273E+00  5.84996E-05  1.0E-07
  8.000E+00  4.86597E-03  2.51709E-16  8.98871E+00  6.02848E-05  1.0E-07
  8.100E+00  4.98817E-03  2.43017E-16  8.67831E+00  6.21028E-05  1.0E-07
  8.200E+00  5.11188E-03  2.34690E-16  8.38095E+00  6.39534E-05  1.0E-07
  8.300E+00  5.23711E-03  2.26712E-16  8.09604E+00  6.58364E-05  1.0E-07
  8.400E+00  5.36383E-03  2.19067E-16  7.82304E+00  6.77515E-05  1.0E-07
  8.500E+00  5.49207E-03  2.11741E-16  7.56141E+00  6.96985E-05  1.0E-07
  8.600E+00  5.62181E-03  2.04719E-16  7.31065E+00  7.16770E-05  1.0E-07
  8.700E+00  5.75306E-03  1.97988E-16  7.07027E+00  7.36866E-05  1.0E-07
  8.800E+00  5.88581E-03  1.91534E-16  6.83981E+00  7.57272E-05  1.0E-07
  8.900E+00  6.02007E-03  1.85346E-16  6.61882E+00  7.77982E-05  1.0E-07
  9.000E+00  6.15583E-03  1.79411E-16  6.40687E+00  7.98993E-05  1.0E-07
  9.100E+00  6.29310E-03  1.73717E-16  6.20356E+00  8.20302E-05  1.0E-07
  9.200E+00  6.43187E-03  1.68255E-16  6.00849E+00  8.41905E-05  1.0E-07
  9.300E+00  6.57214E-03  1.63013E-16  5.82130E+00  8.63797E-05  1.0E-07
  9.400E+00  6.71392E-03  1.57981E-16  5.64162E+00  8.85974E-05  1.0E-07
  9.500E+00  6.85720E-03  1.53151E-16  5.46912E+00  9.08432E-05  1.0E-07
  9.600E+00  7.00198E-03  1.48512E-16  5.30348E+00  9.31167E-05  1.0E-07
  9.700E+00  7.14827E-03  1.44057E-16  5.14438E+00  9.54174E-05  1.0E-07
  9.800E+00  7.29605E-03  1.39777E-16  4.99153E+00  9.77450E-05  1.0E-07
  9.900E+00  7.44534E-03  1.35664E-16  4.84464E+00  1.00099E-04  1.0E-07
  1.000E+01  7.59612E-03  1.31710E-16  4.70346E+00  1.02479E-04  1.0E-07
  1.025E+01  7.97965E-03  1.22479E-16  4.37379E+00  1.08539E-04  1.0E-07
  1.050E+01  8.37255E-03  1.14098E-16  4.07450E+00  1.14752E-04  1.0E-07
  1.075E+01  8.77480E-03  1.06476E-16  3.80233E+00  1.21110E-04  1.0E-07
  1.100E+01  9.18641E-03  9.95327E-17  3.55438E+00  1.27608E-04  1.0E-07
  1.125E+01  9.60736E-03  9.31960E-17  3.32809E+00  1.34239E-04  1.0E-07
  1.150E+01  1.00376E-02  8.74024E-17  3.12120E+00  1.40997E-04  1.0E-07
  1.175E+01  1.04773E-02  8.20958E-17  2.93169E+00  1.47877E-04  1.0E-07
  1.200E+01  1.09262E-02  7.72261E-17  2.75780E+00  1.54874E-04  1.0E-07
  1.225E+01  1.13844E-02  7.27494E-17  2.59793E+00  1.61983E-04  1.0E-07
  1.250E+01  1.18520E-02  6.86265E-17  2.45070E+00  1.69199E-04  1.0E-07
  1.275E+01  1.23288E-02  6.48225E-17  2.31485E+00  1.76519E-04  1.0E-07
  1.300E+01  1.28150E-02  6.13067E-17  2.18930E+00  1.83938E-04  1.0E-07
  1.325E+01  1.33104E-02  5.80515E-17  2.07306E+00  1.91454E-04  1.0E-07
  1.350E+01  1.38150E-02  5.50326E-17  1.96525E+00  1.99062E-04  1.0E-07
  1.375E+01  1.43290E-02  5.22281E-17  1.86510E+00  2.06760E-04  1.0E-07
  1.400E+01  1.48521E-02  4.96187E-17  1.77192E+00  2.14544E-04  1.0E-07
  1.425E+01  1.53845E-02  4.71869E-17  1.68508E+00  2.22413E-04  1.0E-07
  1.450E+01  1.59262E-02  4.49173E-17  1.60403E+00  2.30362E-04  1.0E-07
  1.475E+01  1.64770E-02  4.27959E-17  1.52827E+00  2.38391E-04  1.0E-07
  1.500E+01  1.70371E-02  4.08103E-17  1.45736E+00  2.46495E-04  1.0E-07
  1.525E+01  1.76063E-02  3.89492E-17  1.39090E+00  2.54672E-04  1.0E-07
  1.550E+01  1.81848E-02  3.72026E-17  1.32853E+00  2.62919E-04  1.0E-07
