 #
 # Subroutine ELSEPA. Elastic scattering of electrons and positrons
 #                    by neutral atoms and positive ions
 #
 # Projectile: electron
 # Kinetic energy = 8.00000E+02 eV = 2.93995E+01 a.u.
 #
 # Element: Si,  Z =  14,  atomic weight = 2.80855E+01 g/mol
 #
 # Nuclear model: Fermi distribution
 #                Average radius = 3.25245E-13 cm
 #                Skin thickness = 5.46000E-14 cm
 #
 # Number of electrons = 14
 #
 # Electron density: Read from file z_014.den   
 #                   Number of data points =  761
 #                   Volume integral = 1.40000E+01
 #
 # Furness-McCarthy exchange potential
 #
 # Total elastic cross section = 1.60787E-16 cm**2 = 5.74181E+00 a0**2
 # 1st transport cross section = 1.85642E-17 cm**2 = 6.62938E-01 a0**2
 # 2nd transport cross section = 2.88303E-17 cm**2 = 1.02955E+00 a0**2
 #
 #
 # Differential cross section:                       MU=(1-COS(THETA))/2
 #
 #  THETA        MU          DCS          DCS        Sherman      error
 #  (deg)                 (cm**2/sr)   (a0**2/sr)    function
 #----------------------------------------------------------------------
  0.000E+00  0.00000E+00  2.33343E-15  8.33284E+01  0.00000E+00  1.0E-07
  1.000E-04  7.61557E-13  2.33343E-15  8.33284E+01  6.17903E-12  1.0E-07
  1.250E-04  1.18994E-12  2.33343E-15  8.33284E+01  7.72378E-12  1.0E-07
  1.500E-04  1.71346E-12  2.33343E-15  8.33284E+01  9.26854E-12  1.0E-07
  1.750E-04  2.33225E-12  2.33343E-15  8.33284E+01  1.08133E-11  1.0E-07
  2.000E-04  3.04617E-12  2.33343E-15  8.33284E+01  1.23581E-11  1.0E-07
  2.250E-04  3.85530E-12  2.33343E-15  8.33284E+01  1.39028E-11  1.0E-07
  2.500E-04  4.75964E-12  2.33343E-15  8.33284E+01  1.54476E-11  1.0E-07
  2.750E-04  5.75917E-12  2.33343E-15  8.33284E+01  1.69923E-11  1.0E-07
  3.000E-04  6.85391E-12  2.33343E-15  8.33284E+01  1.85371E-11  1.0E-07
  3.250E-04  8.04379E-12  2.33343E-15  8.33284E+01  2.00818E-11  1.0E-07
  3.500E-04  9.32893E-12  2.33343E-15  8.33284E+01  2.16266E-11  1.0E-07
  3.750E-04  1.07092E-11  2.33343E-15  8.33284E+01  2.31714E-11  1.0E-07
  4.000E-04  1.21847E-11  2.33343E-15  8.33284E+01  2.47161E-11  1.0E-07
  4.250E-04  1.37554E-11  2.33343E-15  8.33284E+01  2.62609E-11  1.0E-07
  4.500E-04  1.54213E-11  2.33343E-15  8.33284E+01  2.78056E-11  1.0E-07
  4.750E-04  1.71823E-11  2.33343E-15  8.33284E+01  2.93504E-11  1.0E-07
  5.000E-04  1.90386E-11  2.33343E-15  8.33284E+01  3.08951E-11  1.0E-07
  5.250E-04  2.09900E-11  2.33343E-15  8.33284E+01  3.24399E-11  1.0E-07
  5.500E-04  2.30367E-11  2.33343E-15  8.33284E+01  3.39846E-11  1.0E-07
  5.750E-04  2.51785E-11  2.33343E-15  8.33284E+01  3.55294E-11  1.0E-07
  6.000E-04  2.74156E-11  2.33343E-15  8.33284E+01  3.70742E-11  1.0E-07
  6.250E-04  2.97478E-11  2.33343E-15  8.33284E+01  3.86189E-11  1.0E-07
  6.500E-04  3.21752E-11  2.33343E-15  8.33284E+01  4.01637E-11  1.0E-07
  6.750E-04  3.46979E-11  2.33343E-15  8.33284E+01  4.17084E-11  1.0E-07
  7.000E-04  3.73157E-11  2.33343E-15  8.33284E+01  4.32532E-11  1.0E-07
  7.250E-04  4.00286E-11  2.33343E-15  8.33284E+01  4.47979E-11  1.0E-07
  7.500E-04  4.28368E-11  2.33343E-15  8.33284E+01  4.63427E-11  1.0E-07
  7.750E-04  4.57402E-11  2.33343E-15  8.33284E+01  4.78875E-11  1.0E-07
  8.000E-04  4.87388E-11  2.33343E-15  8.33284E+01  4.94322E-11  1.0E-07
  8.250E-04  5.18325E-11  2.33343E-15  8.33284E+01  5.09770E-11  1.0E-07
  8.500E-04  5.50215E-11  2.33343E-15  8.33284E+01  5.25217E-11  1.0E-07
  8.750E-04  5.83057E-11  2.33343E-15  8.33284E+01  5.40665E-11  1.0E-07
  9.000E-04  6.16850E-11  2.33343E-15  8.33284E+01  5.56112E-11  1.0E-07
  9.250E-04  6.51595E-11  2.33343E-15  8.33284E+01  5.71560E-11  1.0E-07
  9.500E-04  6.87293E-11  2.33343E-15  8.33284E+01  5.87008E-11  1.0E-07
  9.750E-04  7.23943E-11  2.33343E-15  8.33284E+01  6.02455E-11  1.0E-07
  1.000E-03  7.61544E-11  2.33343E-15  8.33284E+01  6.17903E-11  1.0E-07
  1.250E-03  1.18991E-10  2.33343E-15  8.33284E+01  7.72379E-11  1.0E-07
  1.500E-03  1.71347E-10  2.33343E-15  8.33284E+01  9.26854E-11  1.0E-07
  1.750E-03  2.33223E-10  2.33343E-15  8.33284E+01  1.08133E-10  1.0E-07
  2.000E-03  3.04617E-10  2.33343E-15  8.33284E+01  1.23581E-10  1.0E-07
  2.250E-03  3.85531E-10  2.33343E-15  8.33284E+01  1.39028E-10  1.0E-07
  2.500E-03  4.75965E-10  2.33343E-15  8.33284E+01  1.54476E-10  1.0E-07
  2.750E-03  5.75917E-10  2.33343E-15  8.33284E+01  1.69923E-10  1.0E-07
  3.000E-03  6.85389E-10  2.33343E-15  8.33284E+01  1.85371E-10  1.0E-07
  3.250E-03  8.04380E-10  2.33343E-15  8.33284E+01  2.00819E-10  1.0E-07
  3.500E-03  9.32891E-10  2.33343E-15  8.33284E+01  2.16266E-10  1.0E-07
  3.750E-03  1.07092E-09  2.33343E-15  8.33284E+01  2.31714E-10  1.0E-07
  4.000E-03  1.21847E-09  2.33343E-15  8.33284E+01  2.47162E-10  1.0E-07
  4.250E-03  1.37554E-09  2.33343E-15  8.33284E+01  2.62609E-10  1.0E-07
  4.500E-03  1.54213E-09  2.33343E-15  8.33284E+01  2.78057E-10  1.0E-07
  4.750E-03  1.71823E-09  2.33343E-15  8.33284E+01  2.93505E-10  1.0E-07
  5.000E-03  1.90386E-09  2.33343E-15  8.33284E+01  3.08952E-10  1.0E-07
  5.250E-03  2.09900E-09  2.33343E-15  8.33284E+01  3.24400E-10  1.0E-07
  5.500E-03  2.30367E-09  2.33343E-15  8.33284E+01  3.39848E-10  1.0E-07
  5.750E-03  2.51785E-09  2.33343E-15  8.33284E+01  3.55296E-10  1.0E-07
  6.000E-03  2.74156E-09  2.33343E-15  8.33283E+01  3.70743E-10  1.0E-07
  6.250E-03  2.97478E-09  2.33343E-15  8.33283E+01  3.86191E-10  1.0E-07
  6.500E-03  3.21752E-09  2.33343E-15  8.33283E+01  4.01639E-10  1.0E-07
  6.750E-03  3.46978E-09  2.33343E-15  8.33283E+01  4.17087E-10  1.0E-07
  7.000E-03  3.73156E-09  2.33343E-15  8.33283E+01  4.32535E-10  1.0E-07
  7.250E-03  4.00286E-09  2.33343E-15  8.33283E+01  4.47983E-10  1.0E-07
  7.500E-03  4.28368E-09  2.33343E-15  8.33283E+01  4.63431E-10  1.0E-07
  7.750E-03  4.57402E-09  2.33343E-15  8.33283E+01  4.78879E-10  1.0E-07
  8.000E-03  4.87388E-09  2.33343E-15  8.33283E+01  4.94326E-10  1.0E-07
  8.250E-03  5.18326E-09  2.33343E-15  8.33283E+01  5.09774E-10  1.0E-07
  8.500E-03  5.50215E-09  2.33343E-15  8.33283E+01  5.25222E-10  1.0E-07
  8.750E-03  5.83057E-09  2.33343E-15  8.33283E+01  5.40671E-10  1.0E-07
  9.000E-03  6.16850E-09  2.33343E-15  8.33282E+01  5.56119E-10  1.0E-07
  9.250E-03  6.51596E-09  2.33343E-15  8.33282E+01  5.71567E-10  1.0E-07
  9.500E-03  6.87293E-09  2.33343E-15  8.33282E+01  5.87015E-10  1.0E-07
  9.750E-03  7.23942E-09  2.33343E-15  8.33282E+01  6.02463E-10  1.0E-07
  1.000E-02  7.61544E-09  2.33343E-15  8.33282E+01  6.17911E-10  1.0E-07
  1.250E-02  1.18991E-08  2.33342E-15  8.33281E+01  7.72395E-10  1.0E-07
  1.500E-02  1.71347E-08  2.33342E-15  8.33279E+01  9.26883E-10  1.0E-07
  1.750E-02  2.33223E-08  2.33341E-15  8.33277E+01  1.08137E-09  1.0E-07
  2.000E-02  3.04617E-08  2.33341E-15  8.33275E+01  1.23587E-09  1.0E-07
  2.250E-02  3.85531E-08  2.33340E-15  8.33273E+01  1.39038E-09  1.0E-07
  2.500E-02  4.75965E-08  2.33339E-15  8.33270E+01  1.54489E-09  1.0E-07
  2.750E-02  5.75917E-08  2.33339E-15  8.33267E+01  1.69941E-09  1.0E-07
  3.000E-02  6.85389E-08  2.33338E-15  8.33264E+01  1.85394E-09  1.0E-07
  3.250E-02  8.04380E-08  2.33337E-15  8.33260E+01  2.00847E-09  1.0E-07
  3.500E-02  9.32891E-08  2.33336E-15  8.33256E+01  2.16302E-09  1.0E-07
  3.750E-02  1.07092E-07  2.33334E-15  8.33252E+01  2.31758E-09  1.0E-07
  4.000E-02  1.21847E-07  2.33333E-15  8.33248E+01  2.47215E-09  1.0E-07
  4.250E-02  1.37554E-07  2.33332E-15  8.33243E+01  2.62673E-09  1.0E-07
  4.500E-02  1.54213E-07  2.33331E-15  8.33238E+01  2.78133E-09  1.0E-07
  4.750E-02  1.71823E-07  2.33329E-15  8.33233E+01  2.93594E-09  1.0E-07
  5.000E-02  1.90386E-07  2.33327E-15  8.33228E+01  3.09057E-09  1.0E-07
  5.250E-02  2.09900E-07  2.33326E-15  8.33222E+01  3.24521E-09  1.0E-07
  5.500E-02  2.30367E-07  2.33324E-15  8.33216E+01  3.39987E-09  1.0E-07
  5.750E-02  2.51785E-07  2.33322E-15  8.33209E+01  3.55455E-09  1.0E-07
  6.000E-02  2.74156E-07  2.33320E-15  8.33203E+01  3.70924E-09  1.0E-07
  6.250E-02  2.97478E-07  2.33319E-15  8.33196E+01  3.86395E-09  1.0E-07
  6.500E-02  3.21752E-07  2.33317E-15  8.33188E+01  4.01869E-09  1.0E-07
  6.750E-02  3.46978E-07  2.33314E-15  8.33181E+01  4.17344E-09  1.0E-07
  7.000E-02  3.73156E-07  2.33312E-15  8.33173E+01  4.32822E-09  1.0E-07
  7.250E-02  4.00286E-07  2.33310E-15  8.33165E+01  4.48301E-09  1.0E-07
  7.500E-02  4.28368E-07  2.33308E-15  8.33157E+01  4.63783E-09  1.0E-07
  7.750E-02  4.57402E-07  2.33305E-15  8.33148E+01  4.79268E-09  1.0E-07
  8.000E-02  4.87388E-07  2.33303E-15  8.33139E+01  4.94755E-09  1.0E-07
  8.250E-02  5.18325E-07  2.33300E-15  8.33130E+01  5.10244E-09  1.0E-07
  8.500E-02  5.50215E-07  2.33297E-15  8.33120E+01  5.25736E-09  1.0E-07
  8.750E-02  5.83057E-07  2.33295E-15  8.33111E+01  5.41231E-09  1.0E-07
  9.000E-02  6.16850E-07  2.33292E-15  8.33101E+01  5.56728E-09  1.0E-07
  9.250E-02  6.51596E-07  2.33289E-15  8.33090E+01  5.72229E-09  1.0E-07
  9.500E-02  6.87293E-07  2.33286E-15  8.33080E+01  5.87732E-09  1.0E-07
  9.750E-02  7.23942E-07  2.33283E-15  8.33069E+01  6.03238E-09  1.0E-07
  1.000E-01  7.61543E-07  2.33280E-15  8.33058E+01  6.18748E-09  1.0E-07
  1.250E-01  1.18991E-06  2.33244E-15  8.32930E+01  7.74029E-09  1.0E-07
  1.500E-01  1.71347E-06  2.33201E-15  8.32774E+01  9.29706E-09  1.0E-07
  1.750E-01  2.33223E-06  2.33149E-15  8.32590E+01  1.08586E-08  1.0E-07
  2.000E-01  3.04617E-06  2.33089E-15  8.32378E+01  1.24257E-08  1.0E-07
  2.250E-01  3.85531E-06  2.33022E-15  8.32137E+01  1.39991E-08  1.0E-07
  2.500E-01  4.75964E-06  2.32947E-15  8.31868E+01  1.55797E-08  1.0E-07
  2.750E-01  5.75916E-06  2.32864E-15  8.31571E+01  1.71682E-08  1.0E-07
  3.000E-01  6.85388E-06  2.32773E-15  8.31246E+01  1.87655E-08  1.0E-07
  3.250E-01  8.04378E-06  2.32674E-15  8.30893E+01  2.03723E-08  1.0E-07
  3.500E-01  9.32888E-06  2.32567E-15  8.30512E+01  2.19894E-08  1.0E-07
  3.750E-01  1.07092E-05  2.32452E-15  8.30103E+01  2.36177E-08  1.0E-07
  4.000E-01  1.21846E-05  2.32330E-15  8.29666E+01  2.52579E-08  1.0E-07
  4.250E-01  1.37553E-05  2.32200E-15  8.29201E+01  2.69110E-08  1.0E-07
  4.500E-01  1.54212E-05  2.32062E-15  8.28708E+01  2.85775E-08  1.0E-07
  4.750E-01  1.71822E-05  2.31916E-15  8.28188E+01  3.02585E-08  1.0E-07
  5.000E-01  1.90385E-05  2.31763E-15  8.27640E+01  3.19547E-08  1.0E-07
  5.250E-01  2.09899E-05  2.31601E-15  8.27064E+01  3.36669E-08  1.0E-07
  5.500E-01  2.30365E-05  2.31433E-15  8.26461E+01  3.53959E-08  1.0E-07
  5.750E-01  2.51783E-05  2.31256E-15  8.25830E+01  3.71426E-08  1.0E-07
  6.000E-01  2.74153E-05  2.31072E-15  8.25172E+01  3.89078E-08  1.0E-07
  6.250E-01  2.97475E-05  2.30880E-15  8.24487E+01  4.06923E-08  1.0E-07
  6.500E-01  3.21749E-05  2.30680E-15  8.23775E+01  4.24970E-08  1.0E-07
  6.750E-01  3.46974E-05  2.30473E-15  8.23035E+01  4.43226E-08  1.0E-07
  7.000E-01  3.73152E-05  2.30259E-15  8.22269E+01  4.61701E-08  1.0E-07
  7.250E-01  4.00281E-05  2.30037E-15  8.21476E+01  4.80403E-08  1.0E-07
  7.500E-01  4.28362E-05  2.29807E-15  8.20656E+01  4.99339E-08  1.0E-07
  7.750E-01  4.57395E-05  2.29570E-15  8.19809E+01  5.18519E-08  1.0E-07
  8.000E-01  4.87380E-05  2.29325E-15  8.18936E+01  5.37952E-08  1.0E-07
  8.250E-01  5.18317E-05  2.29073E-15  8.18036E+01  5.57645E-08  1.0E-07
  8.500E-01  5.50205E-05  2.28814E-15  8.17110E+01  5.77608E-08  1.0E-07
  8.750E-01  5.83045E-05  2.28548E-15  8.16158E+01  5.97849E-08  1.0E-07
  9.000E-01  6.16838E-05  2.28274E-15  8.15180E+01  6.18376E-08  1.0E-07
  9.250E-01  6.51582E-05  2.27993E-15  8.14176E+01  6.39200E-08  1.0E-07
  9.500E-01  6.87277E-05  2.27704E-15  8.13147E+01  6.60327E-08  1.0E-07
  9.750E-01  7.23925E-05  2.27409E-15  8.12091E+01  6.81768E-08  1.0E-07
  1.000E+00  7.61524E-05  2.27106E-15  8.11010E+01  7.03532E-08  1.0E-07
  1.100E+00  9.21439E-05  2.25825E-15  8.06435E+01  7.93988E-08  1.0E-07
  1.200E+00  1.09658E-04  2.24432E-15  8.01463E+01  8.90328E-08  1.0E-07
  1.300E+00  1.28695E-04  2.22932E-15  7.96105E+01  9.93151E-08  1.0E-07
  1.400E+00  1.49255E-04  2.21327E-15  7.90373E+01  1.10307E-07  1.0E-07
  1.500E+00  1.71338E-04  2.19620E-15  7.84278E+01  1.22073E-07  1.0E-07
  1.600E+00  1.94942E-04  2.17815E-15  7.77832E+01  1.34677E-07  1.0E-07
  1.700E+00  2.20070E-04  2.15915E-15  7.71048E+01  1.48188E-07  1.0E-07
  1.800E+00  2.46720E-04  2.13925E-15  7.63939E+01  1.62675E-07  1.0E-07
  1.900E+00  2.74892E-04  2.11847E-15  7.56520E+01  1.78211E-07  1.0E-07
  2.000E+00  3.04586E-04  2.09687E-15  7.48804E+01  1.94870E-07  1.0E-07
  2.100E+00  3.35803E-04  2.07447E-15  7.40807E+01  2.12730E-07  1.0E-07
  2.200E+00  3.68542E-04  2.05133E-15  7.32542E+01  2.31871E-07  1.0E-07
  2.300E+00  4.02802E-04  2.02748E-15  7.24025E+01  2.52378E-07  1.0E-07
  2.400E+00  4.38585E-04  2.00296E-15  7.15271E+01  2.74338E-07  1.0E-07
  2.500E+00  4.75889E-04  1.97783E-15  7.06296E+01  2.97840E-07  1.0E-07
  2.600E+00  5.14715E-04  1.95212E-15  6.97114E+01  3.22978E-07  1.0E-07
  2.700E+00  5.55063E-04  1.92587E-15  6.87742E+01  3.49850E-07  1.0E-07
  2.800E+00  5.96931E-04  1.89914E-15  6.78195E+01  3.78559E-07  1.0E-07
  2.900E+00  6.40321E-04  1.87196E-15  6.68489E+01  4.09209E-07  1.0E-07
  3.000E+00  6.85233E-04  1.84437E-15  6.58638E+01  4.41910E-07  1.0E-07
  3.100E+00  7.31665E-04  1.81643E-15  6.48657E+01  4.76777E-07  1.0E-07
  3.200E+00  7.79618E-04  1.78816E-15  6.38563E+01  5.13929E-07  1.0E-07
  3.300E+00  8.29092E-04  1.75961E-15  6.28369E+01  5.53490E-07  1.0E-07
  3.400E+00  8.80086E-04  1.73083E-15  6.18090E+01  5.95589E-07  1.0E-07
  3.500E+00  9.32601E-04  1.70184E-15  6.07740E+01  6.40359E-07  1.0E-07
  3.600E+00  9.86636E-04  1.67270E-15  5.97333E+01  6.87941E-07  1.0E-07
  3.700E+00  1.04219E-03  1.64344E-15  5.86882E+01  7.38479E-07  1.0E-07
  3.800E+00  1.09927E-03  1.61409E-15  5.76402E+01  7.92125E-07  1.0E-07
  3.900E+00  1.15786E-03  1.58469E-15  5.65903E+01  8.49034E-07  1.0E-07
  4.000E+00  1.21797E-03  1.55528E-15  5.55399E+01  9.09370E-07  1.0E-07
  4.100E+00  1.27961E-03  1.52588E-15  5.44901E+01  9.73302E-07  1.0E-07
  4.200E+00  1.34276E-03  1.49653E-15  5.34421E+01  1.04101E-06  1.0E-07
  4.300E+00  1.40743E-03  1.46727E-15  5.23970E+01  1.11266E-06  1.0E-07
  4.400E+00  1.47362E-03  1.43811E-15  5.13558E+01  1.18846E-06  1.0E-07
  4.500E+00  1.54133E-03  1.40909E-15  5.03196E+01  1.26860E-06  1.0E-07
  4.600E+00  1.61056E-03  1.38024E-15  4.92892E+01  1.35329E-06  1.0E-07
  4.700E+00  1.68131E-03  1.35157E-15  4.82655E+01  1.44272E-06  1.0E-07
  4.800E+00  1.75357E-03  1.32312E-15  4.72495E+01  1.53713E-06  1.0E-07
  4.900E+00  1.82735E-03  1.29491E-15  4.62419E+01  1.63674E-06  1.0E-07
  5.000E+00  1.90265E-03  1.26695E-15  4.52435E+01  1.74179E-06  1.0E-07
  5.100E+00  1.97947E-03  1.23926E-15  4.42549E+01  1.85250E-06  1.0E-07
  5.200E+00  2.05780E-03  1.21188E-15  4.32769E+01  1.96915E-06  1.0E-07
  5.300E+00  2.13765E-03  1.18480E-15  4.23100E+01  2.09198E-06  1.0E-07
  5.400E+00  2.21902E-03  1.15805E-15  4.13548E+01  2.22127E-06  1.0E-07
  5.500E+00  2.30190E-03  1.13165E-15  4.04119E+01  2.35729E-06  1.0E-07
  5.600E+00  2.38630E-03  1.10560E-15  3.94816E+01  2.50032E-06  1.0E-07
  5.700E+00  2.47222E-03  1.07991E-15  3.85645E+01  2.65067E-06  1.0E-07
  5.800E+00  2.55965E-03  1.05461E-15  3.76608E+01  2.80863E-06  1.0E-07
  5.900E+00  2.64859E-03  1.02969E-15  3.67710E+01  2.97451E-06  1.0E-07
  6.000E+00  2.73905E-03  1.00517E-15  3.58954E+01  3.14865E-06  1.0E-07
  6.100E+00  2.83103E-03  9.81059E-16  3.50342E+01  3.33137E-06  1.0E-07
  6.200E+00  2.92452E-03  9.57354E-16  3.41877E+01  3.52302E-06  1.0E-07
  6.300E+00  3.01952E-03  9.34065E-16  3.33561E+01  3.72393E-06  1.0E-07
  6.400E+00  3.11604E-03  9.11198E-16  3.25395E+01  3.93449E-06  1.0E-07
  6.500E+00  3.21407E-03  8.88755E-16  3.17380E+01  4.15504E-06  1.0E-07
  6.600E+00  3.31362E-03  8.66739E-16  3.09518E+01  4.38599E-06  1.0E-07
  6.700E+00  3.41468E-03  8.45153E-16  3.01810E+01  4.62771E-06  1.0E-07
  6.800E+00  3.51725E-03  8.23998E-16  2.94255E+01  4.88060E-06  1.0E-07
  6.900E+00  3.62133E-03  8.03274E-16  2.86854E+01  5.14508E-06  1.0E-07
  7.000E+00  3.72692E-03  7.82982E-16  2.79608E+01  5.42156E-06  1.0E-07
  7.100E+00  3.83403E-03  7.63119E-16  2.72515E+01  5.71048E-06  1.0E-07
  7.200E+00  3.94265E-03  7.43686E-16  2.65575E+01  6.01226E-06  1.0E-07
  7.300E+00  4.05278E-03  7.24680E-16  2.58788E+01  6.32736E-06  1.0E-07
  7.400E+00  4.16442E-03  7.06099E-16  2.52152E+01  6.65624E-06  1.0E-07
  7.500E+00  4.27757E-03  6.87939E-16  2.45667E+01  6.99936E-06  1.0E-07
  7.600E+00  4.39223E-03  6.70197E-16  2.39332E+01  7.35720E-06  1.0E-07
  7.700E+00  4.50840E-03  6.52870E-16  2.33144E+01  7.73023E-06  1.0E-07
  7.800E+00  4.62608E-03  6.35953E-16  2.27103E+01  8.11896E-06  1.0E-07
  7.900E+00  4.74527E-03  6.19441E-16  2.21206E+01  8.52389E-06  1.0E-07
  8.000E+00  4.86597E-03  6.03330E-16  2.15453E+01  8.94552E-06  1.0E-07
  8.100E+00  4.98817E-03  5.87614E-16  2.09841E+01  9.38437E-06  1.0E-07
  8.200E+00  5.11188E-03  5.72288E-16  2.04368E+01  9.84096E-06  1.0E-07
  8.300E+00  5.23711E-03  5.57347E-16  1.99032E+01  1.03158E-05  1.0E-07
  8.400E+00  5.36383E-03  5.42783E-16  1.93831E+01  1.08095E-05  1.0E-07
  8.500E+00  5.49207E-03  5.28592E-16  1.88764E+01  1.13226E-05  1.0E-07
  8.600E+00  5.62181E-03  5.14767E-16  1.83827E+01  1.18556E-05  1.0E-07
  8.700E+00  5.75306E-03  5.01301E-16  1.79018E+01  1.24090E-05  1.0E-07
  8.800E+00  5.88581E-03  4.88188E-16  1.74335E+01  1.29835E-05  1.0E-07
  8.900E+00  6.02007E-03  4.75421E-16  1.69776E+01  1.35796E-05  1.0E-07
  9.000E+00  6.15583E-03  4.62994E-16  1.65338E+01  1.41978E-05  1.0E-07
  9.100E+00  6.29310E-03  4.50899E-16  1.61019E+01  1.48389E-05  1.0E-07
  9.200E+00  6.43187E-03  4.39131E-16  1.56817E+01  1.55032E-05  1.0E-07
  9.300E+00  6.57214E-03  4.27682E-16  1.52728E+01  1.61915E-05  1.0E-07
  9.400E+00  6.71392E-03  4.16545E-16  1.48751E+01  1.69043E-05  1.0E-07
  9.500E+00  6.85720E-03  4.05713E-16  1.44883E+01  1.76421E-05  1.0E-07
  9.600E+00  7.00198E-03  3.95180E-16  1.41121E+01  1.84056E-05  1.0E-07
  9.700E+00  7.14827E-03  3.84939E-16  1.37464E+01  1.91954E-05  1.0E-07
  9.800E+00  7.29605E-03  3.74983E-16  1.33909E+01  2.00121E-05  1.0E-07
  9.900E+00  7.44534E-03  3.65304E-16  1.30453E+01  2.08561E-05  1.0E-07
  1.000E+01  7.59612E-03  3.55898E-16  1.27093E+01  2.17282E-05  1.0E-07
  1.025E+01  7.97965E-03  3.33525E-16  1.19104E+01  2.40349E-05  1.0E-07
  1.050E+01  8.37255E-03  3.12705E-16  1.11669E+01  2.65293E-05  1.0E-07
  1.075E+01  8.77480E-03  2.93340E-16  1.04754E+01  2.92204E-05  1.0E-07
  1.100E+01  9.18641E-03  2.75335E-16  9.83239E+00  3.21167E-05  1.0E-07
  1.125E+01  9.60736E-03  2.58598E-16  9.23472E+00  3.52266E-05  1.0E-07
  1.150E+01  1.00376E-02  2.43044E-16  8.67927E+00  3.85580E-05  1.0E-07
  1.175E+01  1.04773E-02  2.28590E-16  8.16309E+00  4.21184E-05  1.0E-07
  1.200E+01  1.09262E-02  2.15158E-16  7.68342E+00  4.59148E-05  1.0E-07
  1.225E+01  1.13844E-02  2.02674E-16  7.23763E+00  4.99537E-05  1.0E-07
  1.250E+01  1.18520E-02  1.91071E-16  6.82328E+00  5.42411E-05  1.0E-07
  1.275E+01  1.23288E-02  1.80284E-16  6.43804E+00  5.87823E-05  1.0E-07
  1.300E+01  1.28150E-02  1.70251E-16  6.07978E+00  6.35820E-05  1.0E-07
  1.325E+01  1.33104E-02  1.60918E-16  5.74648E+00  6.86443E-05  1.0E-07
  1.350E+01  1.38150E-02  1.52231E-16  5.43626E+00  7.39725E-05  1.0E-07
  1.375E+01  1.43290E-02  1.44142E-16  5.14739E+00  7.95695E-05  1.0E-07
  1.400E+01  1.48521E-02  1.36605E-16  4.87826E+00  8.54373E-05  1.0E-07
  1.425E+01  1.53845E-02  1.29579E-16  4.62736E+00  9.15775E-05  1.0E-07
  1.450E+01  1.59262E-02  1.23025E-16  4.39331E+00  9.79910E-05  1.0E-07
  1.475E+01  1.64770E-02  1.16907E-16  4.17483E+00  1.04678E-04  1.0E-07
  1.500E+01  1.70371E-02  1.11192E-16  3.97074E+00  1.11639E-04  1.0E-07
  1.525E+01  1.76063E-02  1.05849E-16  3.77994E+00  1.18872E-04  1.0E-07
  1.550E+01  1.81848E-02  1.00850E-16  3.60142E+00  1.26377E-04  1.0E-07
