 #
 # Subroutine ELSEPA. Elastic scattering of electrons and positrons
 #                    by neutral atoms and positive ions
 #
 # Projectile: electron
 # Kinetic energy = 5.00000E+03 eV = 1.83747E+02 a.u.
 #
 # Element: Si,  Z =  14,  atomic weight = 2.80855E+01 g/mol
 #
 # Nuclear model: Fermi distribution
 #                Average radius = 3.25245E-13 cm
 #                Skin thickness = 5.46000E-14 cm
 #
 # Number of electrons = 14
 #
 # Electron density: Read from file z_014.den   
 #                   Number of data points =  761
 #                   Volume integral = 1.40000E+01
 #
 # Furness-McCarthy exchange potential
 #
 # Total elastic cross section = 3.94230E-17 cm**2 = 1.40782E+00 a0**2
 # 1st transport cross section = 1.02243E-18 cm**2 = 3.65116E-02 a0**2
 # 2nd transport cross section = 2.26338E-18 cm**2 = 8.08267E-02 a0**2
 #
 #
 # Differential cross section:                       MU=(1-COS(THETA))/2
 #
 #  THETA        MU          DCS          DCS        Sherman      error
 #  (deg)                 (cm**2/sr)   (a0**2/sr)    function
 #----------------------------------------------------------------------
  0.000E+00  0.00000E+00  3.06382E-15  1.09411E+02  0.00000E+00  1.0E-07
  1.000E-04  7.61557E-13  3.06382E-15  1.09411E+02  2.44548E-10  1.0E-07
  1.250E-04  1.18994E-12  3.06382E-15  1.09411E+02  3.05686E-10  1.0E-07
  1.500E-04  1.71346E-12  3.06382E-15  1.09411E+02  3.66823E-10  1.0E-07
  1.750E-04  2.33225E-12  3.06382E-15  1.09411E+02  4.27960E-10  1.0E-07
  2.000E-04  3.04617E-12  3.06382E-15  1.09411E+02  4.89097E-10  1.0E-07
  2.250E-04  3.85530E-12  3.06382E-15  1.09411E+02  5.50234E-10  1.0E-07
  2.500E-04  4.75964E-12  3.06382E-15  1.09411E+02  6.11371E-10  1.0E-07
  2.750E-04  5.75917E-12  3.06382E-15  1.09411E+02  6.72508E-10  1.0E-07
  3.000E-04  6.85391E-12  3.06382E-15  1.09411E+02  7.33645E-10  1.0E-07
  3.250E-04  8.04379E-12  3.06382E-15  1.09411E+02  7.94782E-10  1.0E-07
  3.500E-04  9.32893E-12  3.06382E-15  1.09411E+02  8.55919E-10  1.0E-07
  3.750E-04  1.07092E-11  3.06382E-15  1.09411E+02  9.17057E-10  1.0E-07
  4.000E-04  1.21847E-11  3.06382E-15  1.09411E+02  9.78194E-10  1.0E-07
  4.250E-04  1.37554E-11  3.06382E-15  1.09411E+02  1.03933E-09  1.0E-07
  4.500E-04  1.54213E-11  3.06382E-15  1.09411E+02  1.10047E-09  1.0E-07
  4.750E-04  1.71823E-11  3.06382E-15  1.09411E+02  1.16160E-09  1.0E-07
  5.000E-04  1.90386E-11  3.06382E-15  1.09411E+02  1.22274E-09  1.0E-07
  5.250E-04  2.09900E-11  3.06382E-15  1.09411E+02  1.28388E-09  1.0E-07
  5.500E-04  2.30367E-11  3.06382E-15  1.09411E+02  1.34502E-09  1.0E-07
  5.750E-04  2.51785E-11  3.06382E-15  1.09411E+02  1.40615E-09  1.0E-07
  6.000E-04  2.74156E-11  3.06382E-15  1.09411E+02  1.46729E-09  1.0E-07
  6.250E-04  2.97478E-11  3.06382E-15  1.09411E+02  1.52843E-09  1.0E-07
  6.500E-04  3.21752E-11  3.06382E-15  1.09411E+02  1.58956E-09  1.0E-07
  6.750E-04  3.46979E-11  3.06382E-15  1.09411E+02  1.65070E-09  1.0E-07
  7.000E-04  3.73157E-11  3.06382E-15  1.09411E+02  1.71184E-09  1.0E-07
  7.250E-04  4.00286E-11  3.06382E-15  1.09411E+02  1.77298E-09  1.0E-07
  7.500E-04  4.28368E-11  3.06382E-15  1.09411E+02  1.83411E-09  1.0E-07
  7.750E-04  4.57402E-11  3.06382E-15  1.09411E+02  1.89525E-09  1.0E-07
  8.000E-04  4.87388E-11  3.06382E-15  1.09411E+02  1.95639E-09  1.0E-07
  8.250E-04  5.18325E-11  3.06382E-15  1.09411E+02  2.01752E-09  1.0E-07
  8.500E-04  5.50215E-11  3.06382E-15  1.09411E+02  2.07866E-09  1.0E-07
  8.750E-04  5.83057E-11  3.06382E-15  1.09411E+02  2.13980E-09  1.0E-07
  9.000E-04  6.16850E-11  3.06382E-15  1.09411E+02  2.20094E-09  1.0E-07
  9.250E-04  6.51595E-11  3.06382E-15  1.09411E+02  2.26207E-09  1.0E-07
  9.500E-04  6.87293E-11  3.06382E-15  1.09411E+02  2.32321E-09  1.0E-07
  9.750E-04  7.23943E-11  3.06382E-15  1.09411E+02  2.38435E-09  1.0E-07
  1.000E-03  7.61544E-11  3.06382E-15  1.09411E+02  2.44548E-09  1.0E-07
  1.250E-03  1.18991E-10  3.06382E-15  1.09411E+02  3.05686E-09  1.0E-07
  1.500E-03  1.71347E-10  3.06382E-15  1.09411E+02  3.66823E-09  1.0E-07
  1.750E-03  2.33223E-10  3.06382E-15  1.09411E+02  4.27960E-09  1.0E-07
  2.000E-03  3.04617E-10  3.06382E-15  1.09411E+02  4.89097E-09  1.0E-07
  2.250E-03  3.85531E-10  3.06382E-15  1.09411E+02  5.50234E-09  1.0E-07
  2.500E-03  4.75965E-10  3.06382E-15  1.09411E+02  6.11371E-09  1.0E-07
  2.750E-03  5.75917E-10  3.06382E-15  1.09411E+02  6.72508E-09  1.0E-07
  3.000E-03  6.85389E-10  3.06382E-15  1.09411E+02  7.33646E-09  1.0E-07
  3.250E-03  8.04380E-10  3.06382E-15  1.09411E+02  7.94783E-09  1.0E-07
  3.500E-03  9.32891E-10  3.06382E-15  1.09411E+02  8.55920E-09  1.0E-07
  3.750E-03  1.07092E-09  3.06382E-15  1.09411E+02  9.17057E-09  1.0E-07
  4.000E-03  1.21847E-09  3.06382E-15  1.09411E+02  9.78195E-09  1.0E-07
  4.250E-03  1.37554E-09  3.06382E-15  1.09411E+02  1.03933E-08  1.0E-07
  4.500E-03  1.54213E-09  3.06382E-15  1.09411E+02  1.10047E-08  1.0E-07
  4.750E-03  1.71823E-09  3.06381E-15  1.09411E+02  1.16161E-08  1.0E-07
  5.000E-03  1.90386E-09  3.06381E-15  1.09411E+02  1.22274E-08  1.0E-07
  5.250E-03  2.09900E-09  3.06381E-15  1.09411E+02  1.28388E-08  1.0E-07
  5.500E-03  2.30367E-09  3.06381E-15  1.09411E+02  1.34502E-08  1.0E-07
  5.750E-03  2.51785E-09  3.06381E-15  1.09411E+02  1.40616E-08  1.0E-07
  6.000E-03  2.74156E-09  3.06381E-15  1.09411E+02  1.46729E-08  1.0E-07
  6.250E-03  2.97478E-09  3.06381E-15  1.09411E+02  1.52843E-08  1.0E-07
  6.500E-03  3.21752E-09  3.06380E-15  1.09410E+02  1.58957E-08  1.0E-07
  6.750E-03  3.46978E-09  3.06380E-15  1.09410E+02  1.65071E-08  1.0E-07
  7.000E-03  3.73156E-09  3.06380E-15  1.09410E+02  1.71184E-08  1.0E-07
  7.250E-03  4.00286E-09  3.06380E-15  1.09410E+02  1.77298E-08  1.0E-07
  7.500E-03  4.28368E-09  3.06380E-15  1.09410E+02  1.83412E-08  1.0E-07
  7.750E-03  4.57402E-09  3.06380E-15  1.09410E+02  1.89526E-08  1.0E-07
  8.000E-03  4.87388E-09  3.06379E-15  1.09410E+02  1.95640E-08  1.0E-07
  8.250E-03  5.18326E-09  3.06379E-15  1.09410E+02  2.01753E-08  1.0E-07
  8.500E-03  5.50215E-09  3.06379E-15  1.09410E+02  2.07867E-08  1.0E-07
  8.750E-03  5.83057E-09  3.06379E-15  1.09410E+02  2.13981E-08  1.0E-07
  9.000E-03  6.16850E-09  3.06379E-15  1.09410E+02  2.20095E-08  1.0E-07
  9.250E-03  6.51596E-09  3.06378E-15  1.09410E+02  2.26209E-08  1.0E-07
  9.500E-03  6.87293E-09  3.06378E-15  1.09410E+02  2.32322E-08  1.0E-07
  9.750E-03  7.23942E-09  3.06378E-15  1.09410E+02  2.38436E-08  1.0E-07
  1.000E-02  7.61544E-09  3.06378E-15  1.09409E+02  2.44550E-08  1.0E-07
  1.250E-02  1.18991E-08  3.06375E-15  1.09409E+02  3.05689E-08  1.0E-07
  1.500E-02  1.71347E-08  3.06372E-15  1.09407E+02  3.66828E-08  1.0E-07
  1.750E-02  2.33223E-08  3.06368E-15  1.09406E+02  4.27969E-08  1.0E-07
  2.000E-02  3.04617E-08  3.06364E-15  1.09404E+02  4.89111E-08  1.0E-07
  2.250E-02  3.85531E-08  3.06359E-15  1.09403E+02  5.50254E-08  1.0E-07
  2.500E-02  4.75965E-08  3.06353E-15  1.09401E+02  6.11398E-08  1.0E-07
  2.750E-02  5.75917E-08  3.06347E-15  1.09398E+02  6.72544E-08  1.0E-07
  3.000E-02  6.85389E-08  3.06340E-15  1.09396E+02  7.33692E-08  1.0E-07
  3.250E-02  8.04380E-08  3.06332E-15  1.09393E+02  7.94842E-08  1.0E-07
  3.500E-02  9.32891E-08  3.06324E-15  1.09390E+02  8.55994E-08  1.0E-07
  3.750E-02  1.07092E-07  3.06316E-15  1.09387E+02  9.17148E-08  1.0E-07
  4.000E-02  1.21847E-07  3.06307E-15  1.09384E+02  9.78304E-08  1.0E-07
  4.250E-02  1.37554E-07  3.06297E-15  1.09381E+02  1.03946E-07  1.0E-07
  4.500E-02  1.54213E-07  3.06287E-15  1.09377E+02  1.10063E-07  1.0E-07
  4.750E-02  1.71823E-07  3.06276E-15  1.09373E+02  1.16179E-07  1.0E-07
  5.000E-02  1.90386E-07  3.06264E-15  1.09369E+02  1.22296E-07  1.0E-07
  5.250E-02  2.09900E-07  3.06252E-15  1.09365E+02  1.28413E-07  1.0E-07
  5.500E-02  2.30367E-07  3.06239E-15  1.09360E+02  1.34530E-07  1.0E-07
  5.750E-02  2.51785E-07  3.06226E-15  1.09355E+02  1.40648E-07  1.0E-07
  6.000E-02  2.74156E-07  3.06212E-15  1.09350E+02  1.46766E-07  1.0E-07
  6.250E-02  2.97478E-07  3.06198E-15  1.09345E+02  1.52885E-07  1.0E-07
  6.500E-02  3.21752E-07  3.06183E-15  1.09340E+02  1.59004E-07  1.0E-07
  6.750E-02  3.46978E-07  3.06167E-15  1.09334E+02  1.65123E-07  1.0E-07
  7.000E-02  3.73156E-07  3.06151E-15  1.09328E+02  1.71243E-07  1.0E-07
  7.250E-02  4.00286E-07  3.06134E-15  1.09322E+02  1.77364E-07  1.0E-07
  7.500E-02  4.28368E-07  3.06116E-15  1.09316E+02  1.83484E-07  1.0E-07
  7.750E-02  4.57402E-07  3.06098E-15  1.09310E+02  1.89606E-07  1.0E-07
  8.000E-02  4.87388E-07  3.06080E-15  1.09303E+02  1.95727E-07  1.0E-07
  8.250E-02  5.18325E-07  3.06061E-15  1.09296E+02  2.01850E-07  1.0E-07
  8.500E-02  5.50215E-07  3.06041E-15  1.09289E+02  2.07972E-07  1.0E-07
  8.750E-02  5.83057E-07  3.06020E-15  1.09282E+02  2.14096E-07  1.0E-07
  9.000E-02  6.16850E-07  3.05999E-15  1.09274E+02  2.20220E-07  1.0E-07
  9.250E-02  6.51596E-07  3.05978E-15  1.09267E+02  2.26344E-07  1.0E-07
  9.500E-02  6.87293E-07  3.05956E-15  1.09259E+02  2.32469E-07  1.0E-07
  9.750E-02  7.23942E-07  3.05933E-15  1.09251E+02  2.38595E-07  1.0E-07
  1.000E-01  7.61543E-07  3.05910E-15  1.09242E+02  2.44721E-07  1.0E-07
  1.250E-01  1.18991E-06  3.05644E-15  1.09148E+02  3.06023E-07  1.0E-07
  1.500E-01  1.71347E-06  3.05320E-15  1.09032E+02  3.67406E-07  1.0E-07
  1.750E-01  2.33223E-06  3.04938E-15  1.08895E+02  4.28887E-07  1.0E-07
  2.000E-01  3.04617E-06  3.04498E-15  1.08738E+02  4.90481E-07  1.0E-07
  2.250E-01  3.85531E-06  3.04000E-15  1.08560E+02  5.52204E-07  1.0E-07
  2.500E-01  4.75964E-06  3.03445E-15  1.08362E+02  6.14074E-07  1.0E-07
  2.750E-01  5.75916E-06  3.02833E-15  1.08144E+02  6.76106E-07  1.0E-07
  3.000E-01  6.85388E-06  3.02164E-15  1.07905E+02  7.38316E-07  1.0E-07
  3.250E-01  8.04378E-06  3.01440E-15  1.07646E+02  8.00721E-07  1.0E-07
  3.500E-01  9.32888E-06  3.00661E-15  1.07368E+02  8.63337E-07  1.0E-07
  3.750E-01  1.07092E-05  2.99827E-15  1.07070E+02  9.26181E-07  1.0E-07
  4.000E-01  1.21846E-05  2.98940E-15  1.06753E+02  9.89267E-07  1.0E-07
  4.250E-01  1.37553E-05  2.97999E-15  1.06417E+02  1.05261E-06  1.0E-07
  4.500E-01  1.54212E-05  2.97005E-15  1.06063E+02  1.11624E-06  1.0E-07
  4.750E-01  1.71822E-05  2.95960E-15  1.05689E+02  1.18015E-06  1.0E-07
  5.000E-01  1.90385E-05  2.94864E-15  1.05298E+02  1.24437E-06  1.0E-07
  5.250E-01  2.09899E-05  2.93718E-15  1.04889E+02  1.30892E-06  1.0E-07
  5.500E-01  2.30365E-05  2.92522E-15  1.04462E+02  1.37381E-06  1.0E-07
  5.750E-01  2.51783E-05  2.91279E-15  1.04017E+02  1.43905E-06  1.0E-07
  6.000E-01  2.74153E-05  2.89988E-15  1.03556E+02  1.50467E-06  1.0E-07
  6.250E-01  2.97475E-05  2.88650E-15  1.03079E+02  1.57068E-06  1.0E-07
  6.500E-01  3.21749E-05  2.87267E-15  1.02585E+02  1.63710E-06  1.0E-07
  6.750E-01  3.46974E-05  2.85840E-15  1.02075E+02  1.70393E-06  1.0E-07
  7.000E-01  3.73152E-05  2.84369E-15  1.01550E+02  1.77121E-06  1.0E-07
  7.250E-01  4.00281E-05  2.82856E-15  1.01010E+02  1.83894E-06  1.0E-07
  7.500E-01  4.28362E-05  2.81301E-15  1.00455E+02  1.90714E-06  1.0E-07
  7.750E-01  4.57395E-05  2.79707E-15  9.98852E+01  1.97583E-06  1.0E-07
  8.000E-01  4.87380E-05  2.78074E-15  9.93019E+01  2.04502E-06  1.0E-07
  8.250E-01  5.18317E-05  2.76402E-15  9.87050E+01  2.11473E-06  1.0E-07
  8.500E-01  5.50205E-05  2.74694E-15  9.80951E+01  2.18498E-06  1.0E-07
  8.750E-01  5.83045E-05  2.72951E-15  9.74724E+01  2.25578E-06  1.0E-07
  9.000E-01  6.16838E-05  2.71173E-15  9.68375E+01  2.32715E-06  1.0E-07
  9.250E-01  6.51582E-05  2.69361E-15  9.61907E+01  2.39911E-06  1.0E-07
  9.500E-01  6.87277E-05  2.67518E-15  9.55325E+01  2.47166E-06  1.0E-07
  9.750E-01  7.23925E-05  2.65644E-15  9.48633E+01  2.54484E-06  1.0E-07
  1.000E+00  7.61524E-05  2.63741E-15  9.41835E+01  2.61865E-06  1.0E-07
  1.100E+00  9.21439E-05  2.55855E-15  9.13675E+01  2.92054E-06  1.0E-07
  1.200E+00  1.09658E-04  2.47593E-15  8.84171E+01  3.23388E-06  1.0E-07
  1.300E+00  1.28695E-04  2.39032E-15  8.53599E+01  3.55969E-06  1.0E-07
  1.400E+00  1.49255E-04  2.30247E-15  8.22225E+01  3.89902E-06  1.0E-07
  1.500E+00  1.71338E-04  2.21308E-15  7.90307E+01  4.25288E-06  1.0E-07
  1.600E+00  1.94942E-04  2.12286E-15  7.58085E+01  4.62229E-06  1.0E-07
  1.700E+00  2.20070E-04  2.03241E-15  7.25785E+01  5.00828E-06  1.0E-07
  1.800E+00  2.46720E-04  1.94231E-15  6.93612E+01  5.41182E-06  1.0E-07
  1.900E+00  2.74892E-04  1.85309E-15  6.61752E+01  5.83392E-06  1.0E-07
  2.000E+00  3.04586E-04  1.76521E-15  6.30367E+01  6.27555E-06  1.0E-07
  2.100E+00  3.35803E-04  1.67906E-15  5.99603E+01  6.73764E-06  1.0E-07
  2.200E+00  3.68542E-04  1.59499E-15  5.69580E+01  7.22113E-06  1.0E-07
  2.300E+00  4.02802E-04  1.51327E-15  5.40400E+01  7.72692E-06  1.0E-07
  2.400E+00  4.38585E-04  1.43416E-15  5.12148E+01  8.25589E-06  1.0E-07
  2.500E+00  4.75889E-04  1.35782E-15  4.84887E+01  8.80887E-06  1.0E-07
  2.600E+00  5.14715E-04  1.28440E-15  4.58667E+01  9.38668E-06  1.0E-07
  2.700E+00  5.55063E-04  1.21398E-15  4.33521E+01  9.99007E-06  1.0E-07
  2.800E+00  5.96931E-04  1.14663E-15  4.09469E+01  1.06198E-05  1.0E-07
  2.900E+00  6.40321E-04  1.08237E-15  3.86521E+01  1.12765E-05  1.0E-07
  3.000E+00  6.85233E-04  1.02119E-15  3.64674E+01  1.19608E-05  1.0E-07
  3.100E+00  7.31665E-04  9.63070E-16  3.43919E+01  1.26733E-05  1.0E-07
  3.200E+00  7.79618E-04  9.07953E-16  3.24236E+01  1.34145E-05  1.0E-07
  3.300E+00  8.29092E-04  8.55773E-16  3.05602E+01  1.41849E-05  1.0E-07
  3.400E+00  8.80086E-04  8.06450E-16  2.87988E+01  1.49848E-05  1.0E-07
  3.500E+00  9.32601E-04  7.59890E-16  2.71362E+01  1.58146E-05  1.0E-07
  3.600E+00  9.86636E-04  7.15992E-16  2.55686E+01  1.66746E-05  1.0E-07
  3.700E+00  1.04219E-03  6.74651E-16  2.40922E+01  1.75650E-05  1.0E-07
  3.800E+00  1.09927E-03  6.35755E-16  2.27032E+01  1.84858E-05  1.0E-07
  3.900E+00  1.15786E-03  5.99190E-16  2.13975E+01  1.94371E-05  1.0E-07
  4.000E+00  1.21797E-03  5.64843E-16  2.01709E+01  2.04190E-05  1.0E-07
  4.100E+00  1.27961E-03  5.32600E-16  1.90195E+01  2.14314E-05  1.0E-07
  4.200E+00  1.34276E-03  5.02349E-16  1.79392E+01  2.24740E-05  1.0E-07
  4.300E+00  1.40743E-03  4.73979E-16  1.69261E+01  2.35467E-05  1.0E-07
  4.400E+00  1.47362E-03  4.47383E-16  1.59764E+01  2.46491E-05  1.0E-07
  4.500E+00  1.54133E-03  4.22459E-16  1.50863E+01  2.57810E-05  1.0E-07
  4.600E+00  1.61056E-03  3.99105E-16  1.42523E+01  2.69419E-05  1.0E-07
  4.700E+00  1.68131E-03  3.77226E-16  1.34710E+01  2.81314E-05  1.0E-07
  4.800E+00  1.75357E-03  3.56731E-16  1.27391E+01  2.93488E-05  1.0E-07
  4.900E+00  1.82735E-03  3.37533E-16  1.20535E+01  3.05938E-05  1.0E-07
  5.000E+00  1.90265E-03  3.19548E-16  1.14113E+01  3.18655E-05  1.0E-07
  5.100E+00  1.97947E-03  3.02699E-16  1.08096E+01  3.31635E-05  1.0E-07
  5.200E+00  2.05780E-03  2.86912E-16  1.02458E+01  3.44869E-05  1.0E-07
  5.300E+00  2.13765E-03  2.72117E-16  9.71747E+00  3.58351E-05  1.0E-07
  5.400E+00  2.21902E-03  2.58248E-16  9.22220E+00  3.72073E-05  1.0E-07
  5.500E+00  2.30190E-03  2.45244E-16  8.75782E+00  3.86027E-05  1.0E-07
  5.600E+00  2.38630E-03  2.33047E-16  8.32226E+00  4.00206E-05  1.0E-07
  5.700E+00  2.47222E-03  2.21603E-16  7.91359E+00  4.14601E-05  1.0E-07
  5.800E+00  2.55965E-03  2.10862E-16  7.53001E+00  4.29205E-05  1.0E-07
  5.900E+00  2.64859E-03  2.00775E-16  7.16982E+00  4.44010E-05  1.0E-07
  6.000E+00  2.73905E-03  1.91300E-16  6.83146E+00  4.59008E-05  1.0E-07
  6.100E+00  2.83103E-03  1.82395E-16  6.51344E+00  4.74190E-05  1.0E-07
  6.200E+00  2.92452E-03  1.74021E-16  6.21441E+00  4.89550E-05  1.0E-07
  6.300E+00  3.01952E-03  1.66143E-16  5.93309E+00  5.05079E-05  1.0E-07
  6.400E+00  3.11604E-03  1.58728E-16  5.66828E+00  5.20770E-05  1.0E-07
  6.500E+00  3.21407E-03  1.51744E-16  5.41888E+00  5.36616E-05  1.0E-07
  6.600E+00  3.31362E-03  1.45163E-16  5.18386E+00  5.52611E-05  1.0E-07
  6.700E+00  3.41468E-03  1.38957E-16  4.96226E+00  5.68747E-05  1.0E-07
  6.800E+00  3.51725E-03  1.33103E-16  4.75319E+00  5.85018E-05  1.0E-07
  6.900E+00  3.62133E-03  1.27576E-16  4.55583E+00  6.01418E-05  1.0E-07
  7.000E+00  3.72692E-03  1.22356E-16  4.36941E+00  6.17941E-05  1.0E-07
  7.100E+00  3.83403E-03  1.17422E-16  4.19320E+00  6.34582E-05  1.0E-07
  7.200E+00  3.94265E-03  1.12755E-16  4.02655E+00  6.51335E-05  1.0E-07
  7.300E+00  4.05278E-03  1.08339E-16  3.86884E+00  6.68196E-05  1.0E-07
  7.400E+00  4.16442E-03  1.04156E-16  3.71949E+00  6.85159E-05  1.0E-07
  7.500E+00  4.27757E-03  1.00193E-16  3.57797E+00  7.02221E-05  1.0E-07
  7.600E+00  4.39223E-03  9.64357E-17  3.44378E+00  7.19378E-05  1.0E-07
  7.700E+00  4.50840E-03  9.28704E-17  3.31646E+00  7.36625E-05  1.0E-07
  7.800E+00  4.62608E-03  8.94854E-17  3.19558E+00  7.53960E-05  1.0E-07
  7.900E+00  4.74527E-03  8.62696E-17  3.08074E+00  7.71379E-05  1.0E-07
  8.000E+00  4.86597E-03  8.32126E-17  2.97158E+00  7.88878E-05  1.0E-07
  8.100E+00  4.98817E-03  8.03046E-17  2.86773E+00  8.06455E-05  1.0E-07
  8.200E+00  5.11188E-03  7.75366E-17  2.76888E+00  8.24108E-05  1.0E-07
  8.300E+00  5.23711E-03  7.49003E-17  2.67474E+00  8.41833E-05  1.0E-07
  8.400E+00  5.36383E-03  7.23877E-17  2.58501E+00  8.59629E-05  1.0E-07
  8.500E+00  5.49207E-03  6.99917E-17  2.49945E+00  8.77494E-05  1.0E-07
  8.600E+00  5.62181E-03  6.77053E-17  2.41780E+00  8.95424E-05  1.0E-07
  8.700E+00  5.75306E-03  6.55222E-17  2.33984E+00  9.13419E-05  1.0E-07
  8.800E+00  5.88581E-03  6.34365E-17  2.26536E+00  9.31476E-05  1.0E-07
  8.900E+00  6.02007E-03  6.14427E-17  2.19416E+00  9.49595E-05  1.0E-07
  9.000E+00  6.15583E-03  5.95356E-17  2.12606E+00  9.67772E-05  1.0E-07
  9.100E+00  6.29310E-03  5.77104E-17  2.06088E+00  9.86006E-05  1.0E-07
  9.200E+00  6.43187E-03  5.59626E-17  1.99846E+00  1.00430E-04  1.0E-07
  9.300E+00  6.57214E-03  5.42878E-17  1.93865E+00  1.02264E-04  1.0E-07
  9.400E+00  6.71392E-03  5.26823E-17  1.88132E+00  1.04104E-04  1.0E-07
  9.500E+00  6.85720E-03  5.11423E-17  1.82632E+00  1.05949E-04  1.0E-07
  9.600E+00  7.00198E-03  4.96642E-17  1.77354E+00  1.07798E-04  1.0E-07
  9.700E+00  7.14827E-03  4.82450E-17  1.72286E+00  1.09653E-04  1.0E-07
  9.800E+00  7.29605E-03  4.68815E-17  1.67417E+00  1.11512E-04  1.0E-07
  9.900E+00  7.44534E-03  4.55709E-17  1.62737E+00  1.13376E-04  1.0E-07
  1.000E+01  7.59612E-03  4.43105E-17  1.58236E+00  1.15243E-04  1.0E-07
  1.025E+01  7.97965E-03  4.13631E-17  1.47710E+00  1.19931E-04  1.0E-07
  1.050E+01  8.37255E-03  3.86788E-17  1.38125E+00  1.24640E-04  1.0E-07
  1.075E+01  8.77480E-03  3.62274E-17  1.29370E+00  1.29369E-04  1.0E-07
  1.100E+01  9.18641E-03  3.39826E-17  1.21354E+00  1.34114E-04  1.0E-07
  1.125E+01  9.60736E-03  3.19220E-17  1.13996E+00  1.38871E-04  1.0E-07
  1.150E+01  1.00376E-02  3.00260E-17  1.07225E+00  1.43635E-04  1.0E-07
  1.175E+01  1.04773E-02  2.82776E-17  1.00981E+00  1.48402E-04  1.0E-07
  1.200E+01  1.09262E-02  2.66618E-17  9.52111E-01  1.53167E-04  1.0E-07
  1.225E+01  1.13844E-02  2.51658E-17  8.98687E-01  1.57924E-04  1.0E-07
  1.250E+01  1.18520E-02  2.37781E-17  8.49130E-01  1.62668E-04  1.0E-07
  1.275E+01  1.23288E-02  2.24885E-17  8.03080E-01  1.67393E-04  1.0E-07
  1.300E+01  1.28150E-02  2.12883E-17  7.60220E-01  1.72091E-04  1.0E-07
  1.325E+01  1.33104E-02  2.01696E-17  7.20269E-01  1.76757E-04  1.0E-07
  1.350E+01  1.38150E-02  1.91252E-17  6.82975E-01  1.81383E-04  1.0E-07
  1.375E+01  1.43290E-02  1.81491E-17  6.48115E-01  1.85961E-04  1.0E-07
  1.400E+01  1.48521E-02  1.72355E-17  6.15489E-01  1.90485E-04  1.0E-07
  1.425E+01  1.53845E-02  1.63794E-17  5.84918E-01  1.94945E-04  1.0E-07
  1.450E+01  1.59262E-02  1.55763E-17  5.56241E-01  1.99334E-04  1.0E-07
  1.475E+01  1.64770E-02  1.48222E-17  5.29312E-01  2.03644E-04  1.0E-07
  1.500E+01  1.70371E-02  1.41134E-17  5.03999E-01  2.07865E-04  1.0E-07
  1.525E+01  1.76063E-02  1.34465E-17  4.80183E-01  2.11988E-04  1.0E-07
  1.550E+01  1.81848E-02  1.28185E-17  4.57757E-01  2.16006E-04  1.0E-07
