 #
 # Subroutine ELSEPA. Elastic scattering of electrons and positrons
 #                    by neutral atoms and positive ions
 #
 # Projectile: electron
 # Kinetic energy = 1.90000E+01 eV = 6.98237E-01 a.u.
 #
 #  ***  WARNING: Energy is too low.
 #                The reliability of the results is questionable.
 #
 # Element:  H,  Z =   1,  atomic weight = 1.00790E+00 g/mol
 #
 # Nuclear model: Fermi distribution
 #                Average radius = 1.07281E-13 cm
 #                Skin thickness = 5.46000E-14 cm
 #
 # Number of electrons =  1
 #
 # Electron density: analytical DHFS model
 #                   A1 = -7.05665D-06 ,   ALPHA1 = 4.92969D+00
 #                   A2 = -1.84386D+02 ,   ALPHA2 = 2.00272D+00
 #                   A3 =  1.85386D+02 ,   ALPHA3 = 1.99732D+00
 #                   Volume integral = 1.00000E+00
 #
 # Furness-McCarthy exchange potential
 #
 # Total elastic cross section = 2.36949E-16 cm**2 = 8.46162E+00 a0**2
 # 1st transport cross section = 1.49373E-16 cm**2 = 5.33419E+00 a0**2
 # 2nd transport cross section = 2.02190E-16 cm**2 = 7.22032E+00 a0**2
 #
 #
 # Differential cross section:                       MU=(1-COS(THETA))/2
 #
 #  THETA        MU          DCS          DCS        Sherman      error
 #  (deg)                 (cm**2/sr)   (a0**2/sr)    function
 #----------------------------------------------------------------------
  0.000E+00  0.00000E+00  6.49041E-17  2.31777E+00  0.00000E+00  1.0E-07
  1.000E-04  7.61557E-13  6.49041E-17  2.31777E+00 -2.25143E-11  1.0E-07
  1.250E-04  1.18994E-12  6.49041E-17  2.31777E+00 -2.81428E-11  1.0E-07
  1.500E-04  1.71346E-12  6.49041E-17  2.31777E+00 -3.37714E-11  1.0E-07
  1.750E-04  2.33225E-12  6.49041E-17  2.31777E+00 -3.93999E-11  1.0E-07
  2.000E-04  3.04617E-12  6.49041E-17  2.31777E+00 -4.50285E-11  1.0E-07
  2.250E-04  3.85530E-12  6.49041E-17  2.31777E+00 -5.06571E-11  1.0E-07
  2.500E-04  4.75964E-12  6.49041E-17  2.31777E+00 -5.62856E-11  1.0E-07
  2.750E-04  5.75917E-12  6.49041E-17  2.31777E+00 -6.19142E-11  1.0E-07
  3.000E-04  6.85391E-12  6.49041E-17  2.31777E+00 -6.75428E-11  1.0E-07
  3.250E-04  8.04379E-12  6.49041E-17  2.31777E+00 -7.31713E-11  1.0E-07
  3.500E-04  9.32893E-12  6.49041E-17  2.31777E+00 -7.87999E-11  1.0E-07
  3.750E-04  1.07092E-11  6.49041E-17  2.31777E+00 -8.44285E-11  1.0E-07
  4.000E-04  1.21847E-11  6.49041E-17  2.31777E+00 -9.00570E-11  1.0E-07
  4.250E-04  1.37554E-11  6.49041E-17  2.31777E+00 -9.56856E-11  1.0E-07
  4.500E-04  1.54213E-11  6.49041E-17  2.31777E+00 -1.01314E-10  1.0E-07
  4.750E-04  1.71823E-11  6.49041E-17  2.31777E+00 -1.06943E-10  1.0E-07
  5.000E-04  1.90386E-11  6.49041E-17  2.31777E+00 -1.12571E-10  1.0E-07
  5.250E-04  2.09900E-11  6.49041E-17  2.31777E+00 -1.18200E-10  1.0E-07
  5.500E-04  2.30367E-11  6.49041E-17  2.31777E+00 -1.23828E-10  1.0E-07
  5.750E-04  2.51785E-11  6.49041E-17  2.31777E+00 -1.29457E-10  1.0E-07
  6.000E-04  2.74156E-11  6.49041E-17  2.31777E+00 -1.35086E-10  1.0E-07
  6.250E-04  2.97478E-11  6.49041E-17  2.31777E+00 -1.40714E-10  1.0E-07
  6.500E-04  3.21752E-11  6.49041E-17  2.31777E+00 -1.46343E-10  1.0E-07
  6.750E-04  3.46979E-11  6.49041E-17  2.31777E+00 -1.51971E-10  1.0E-07
  7.000E-04  3.73157E-11  6.49041E-17  2.31777E+00 -1.57600E-10  1.0E-07
  7.250E-04  4.00286E-11  6.49041E-17  2.31777E+00 -1.63228E-10  1.0E-07
  7.500E-04  4.28368E-11  6.49041E-17  2.31777E+00 -1.68857E-10  1.0E-07
  7.750E-04  4.57402E-11  6.49041E-17  2.31777E+00 -1.74485E-10  1.0E-07
  8.000E-04  4.87388E-11  6.49041E-17  2.31777E+00 -1.80114E-10  1.0E-07
  8.250E-04  5.18325E-11  6.49041E-17  2.31777E+00 -1.85743E-10  1.0E-07
  8.500E-04  5.50215E-11  6.49041E-17  2.31777E+00 -1.91371E-10  1.0E-07
  8.750E-04  5.83057E-11  6.49041E-17  2.31777E+00 -1.97000E-10  1.0E-07
  9.000E-04  6.16850E-11  6.49041E-17  2.31777E+00 -2.02628E-10  1.0E-07
  9.250E-04  6.51595E-11  6.49041E-17  2.31777E+00 -2.08257E-10  1.0E-07
  9.500E-04  6.87293E-11  6.49041E-17  2.31777E+00 -2.13885E-10  1.0E-07
  9.750E-04  7.23943E-11  6.49041E-17  2.31777E+00 -2.19514E-10  1.0E-07
  1.000E-03  7.61544E-11  6.49041E-17  2.31777E+00 -2.25143E-10  1.0E-07
  1.250E-03  1.18991E-10  6.49041E-17  2.31777E+00 -2.81428E-10  1.0E-07
  1.500E-03  1.71347E-10  6.49041E-17  2.31777E+00 -3.37714E-10  1.0E-07
  1.750E-03  2.33223E-10  6.49041E-17  2.31777E+00 -3.93999E-10  1.0E-07
  2.000E-03  3.04617E-10  6.49041E-17  2.31777E+00 -4.50285E-10  1.0E-07
  2.250E-03  3.85531E-10  6.49041E-17  2.31777E+00 -5.06571E-10  1.0E-07
  2.500E-03  4.75965E-10  6.49041E-17  2.31777E+00 -5.62856E-10  1.0E-07
  2.750E-03  5.75917E-10  6.49041E-17  2.31777E+00 -6.19142E-10  1.0E-07
  3.000E-03  6.85389E-10  6.49041E-17  2.31777E+00 -6.75428E-10  1.0E-07
  3.250E-03  8.04380E-10  6.49041E-17  2.31777E+00 -7.31713E-10  1.0E-07
  3.500E-03  9.32891E-10  6.49041E-17  2.31777E+00 -7.87999E-10  1.0E-07
  3.750E-03  1.07092E-09  6.49041E-17  2.31777E+00 -8.44285E-10  1.0E-07
  4.000E-03  1.21847E-09  6.49041E-17  2.31777E+00 -9.00570E-10  1.0E-07
  4.250E-03  1.37554E-09  6.49041E-17  2.31777E+00 -9.56856E-10  1.0E-07
  4.500E-03  1.54213E-09  6.49041E-17  2.31777E+00 -1.01314E-09  1.0E-07
  4.750E-03  1.71823E-09  6.49041E-17  2.31777E+00 -1.06943E-09  1.0E-07
  5.000E-03  1.90386E-09  6.49041E-17  2.31777E+00 -1.12571E-09  1.0E-07
  5.250E-03  2.09900E-09  6.49041E-17  2.31777E+00 -1.18200E-09  1.0E-07
  5.500E-03  2.30367E-09  6.49041E-17  2.31777E+00 -1.23828E-09  1.0E-07
  5.750E-03  2.51785E-09  6.49041E-17  2.31777E+00 -1.29457E-09  1.0E-07
  6.000E-03  2.74156E-09  6.49041E-17  2.31777E+00 -1.35086E-09  1.0E-07
  6.250E-03  2.97478E-09  6.49041E-17  2.31777E+00 -1.40714E-09  1.0E-07
  6.500E-03  3.21752E-09  6.49041E-17  2.31777E+00 -1.46343E-09  1.0E-07
  6.750E-03  3.46978E-09  6.49041E-17  2.31777E+00 -1.51971E-09  1.0E-07
  7.000E-03  3.73156E-09  6.49041E-17  2.31777E+00 -1.57600E-09  1.0E-07
  7.250E-03  4.00286E-09  6.49041E-17  2.31777E+00 -1.63228E-09  1.0E-07
  7.500E-03  4.28368E-09  6.49041E-17  2.31777E+00 -1.68857E-09  1.0E-07
  7.750E-03  4.57402E-09  6.49041E-17  2.31777E+00 -1.74485E-09  1.0E-07
  8.000E-03  4.87388E-09  6.49041E-17  2.31777E+00 -1.80114E-09  1.0E-07
  8.250E-03  5.18326E-09  6.49041E-17  2.31777E+00 -1.85743E-09  1.0E-07
  8.500E-03  5.50215E-09  6.49041E-17  2.31777E+00 -1.91371E-09  1.0E-07
  8.750E-03  5.83057E-09  6.49041E-17  2.31777E+00 -1.97000E-09  1.0E-07
  9.000E-03  6.16850E-09  6.49041E-17  2.31777E+00 -2.02628E-09  1.0E-07
  9.250E-03  6.51596E-09  6.49041E-17  2.31777E+00 -2.08257E-09  1.0E-07
  9.500E-03  6.87293E-09  6.49041E-17  2.31777E+00 -2.13885E-09  1.0E-07
  9.750E-03  7.23942E-09  6.49041E-17  2.31777E+00 -2.19514E-09  1.0E-07
  1.000E-02  7.61544E-09  6.49041E-17  2.31777E+00 -2.25143E-09  1.0E-07
  1.250E-02  1.18991E-08  6.49041E-17  2.31777E+00 -2.81428E-09  1.0E-07
  1.500E-02  1.71347E-08  6.49041E-17  2.31777E+00 -3.37714E-09  1.0E-07
  1.750E-02  2.33223E-08  6.49041E-17  2.31777E+00 -3.94000E-09  1.0E-07
  2.000E-02  3.04617E-08  6.49041E-17  2.31777E+00 -4.50285E-09  1.0E-07
  2.250E-02  3.85531E-08  6.49041E-17  2.31777E+00 -5.06571E-09  1.0E-07
  2.500E-02  4.75965E-08  6.49041E-17  2.31777E+00 -5.62856E-09  1.0E-07
  2.750E-02  5.75917E-08  6.49041E-17  2.31777E+00 -6.19142E-09  1.0E-07
  3.000E-02  6.85389E-08  6.49041E-17  2.31777E+00 -6.75428E-09  1.0E-07
  3.250E-02  8.04380E-08  6.49041E-17  2.31777E+00 -7.31714E-09  1.0E-07
  3.500E-02  9.32891E-08  6.49041E-17  2.31777E+00 -7.87999E-09  1.0E-07
  3.750E-02  1.07092E-07  6.49041E-17  2.31777E+00 -8.44285E-09  1.0E-07
  4.000E-02  1.21847E-07  6.49041E-17  2.31777E+00 -9.00571E-09  1.0E-07
  4.250E-02  1.37554E-07  6.49041E-17  2.31777E+00 -9.56856E-09  1.0E-07
  4.500E-02  1.54213E-07  6.49040E-17  2.31777E+00 -1.01314E-08  1.0E-07
  4.750E-02  1.71823E-07  6.49040E-17  2.31777E+00 -1.06943E-08  1.0E-07
  5.000E-02  1.90386E-07  6.49040E-17  2.31777E+00 -1.12571E-08  1.0E-07
  5.250E-02  2.09900E-07  6.49040E-17  2.31777E+00 -1.18200E-08  1.0E-07
  5.500E-02  2.30367E-07  6.49040E-17  2.31776E+00 -1.23828E-08  1.0E-07
  5.750E-02  2.51785E-07  6.49040E-17  2.31776E+00 -1.29457E-08  1.0E-07
  6.000E-02  2.74156E-07  6.49040E-17  2.31776E+00 -1.35086E-08  1.0E-07
  6.250E-02  2.97478E-07  6.49040E-17  2.31776E+00 -1.40714E-08  1.0E-07
  6.500E-02  3.21752E-07  6.49040E-17  2.31776E+00 -1.46343E-08  1.0E-07
  6.750E-02  3.46978E-07  6.49040E-17  2.31776E+00 -1.51971E-08  1.0E-07
  7.000E-02  3.73156E-07  6.49040E-17  2.31776E+00 -1.57600E-08  1.0E-07
  7.250E-02  4.00286E-07  6.49040E-17  2.31776E+00 -1.63229E-08  1.0E-07
  7.500E-02  4.28368E-07  6.49040E-17  2.31776E+00 -1.68857E-08  1.0E-07
  7.750E-02  4.57402E-07  6.49040E-17  2.31776E+00 -1.74486E-08  1.0E-07
  8.000E-02  4.87388E-07  6.49039E-17  2.31776E+00 -1.80114E-08  1.0E-07
  8.250E-02  5.18325E-07  6.49039E-17  2.31776E+00 -1.85743E-08  1.0E-07
  8.500E-02  5.50215E-07  6.49039E-17  2.31776E+00 -1.91371E-08  1.0E-07
  8.750E-02  5.83057E-07  6.49039E-17  2.31776E+00 -1.97000E-08  1.0E-07
  9.000E-02  6.16850E-07  6.49039E-17  2.31776E+00 -2.02629E-08  1.0E-07
  9.250E-02  6.51596E-07  6.49039E-17  2.31776E+00 -2.08257E-08  1.0E-07
  9.500E-02  6.87293E-07  6.49039E-17  2.31776E+00 -2.13886E-08  1.0E-07
  9.750E-02  7.23942E-07  6.49039E-17  2.31776E+00 -2.19514E-08  1.0E-07
  1.000E-01  7.61543E-07  6.49039E-17  2.31776E+00 -2.25143E-08  1.0E-07
  1.250E-01  1.18991E-06  6.49037E-17  2.31775E+00 -2.81429E-08  1.0E-07
  1.500E-01  1.71347E-06  6.49035E-17  2.31775E+00 -3.37715E-08  1.0E-07
  1.750E-01  2.33223E-06  6.49033E-17  2.31774E+00 -3.94002E-08  1.0E-07
  2.000E-01  3.04617E-06  6.49031E-17  2.31773E+00 -4.50289E-08  1.0E-07
  2.250E-01  3.85531E-06  6.49029E-17  2.31772E+00 -5.06576E-08  1.0E-07
  2.500E-01  4.75964E-06  6.49026E-17  2.31771E+00 -5.62863E-08  1.0E-07
  2.750E-01  5.75916E-06  6.49022E-17  2.31770E+00 -6.19151E-08  1.0E-07
  3.000E-01  6.85388E-06  6.49019E-17  2.31769E+00 -6.75440E-08  1.0E-07
  3.250E-01  8.04378E-06  6.49015E-17  2.31767E+00 -7.31729E-08  1.0E-07
  3.500E-01  9.32888E-06  6.49011E-17  2.31766E+00 -7.88018E-08  1.0E-07
  3.750E-01  1.07092E-05  6.49006E-17  2.31764E+00 -8.44308E-08  1.0E-07
  4.000E-01  1.21846E-05  6.49002E-17  2.31763E+00 -9.00599E-08  1.0E-07
  4.250E-01  1.37553E-05  6.48997E-17  2.31761E+00 -9.56890E-08  1.0E-07
  4.500E-01  1.54212E-05  6.48991E-17  2.31759E+00 -1.01318E-07  1.0E-07
  4.750E-01  1.71822E-05  6.48986E-17  2.31757E+00 -1.06948E-07  1.0E-07
  5.000E-01  1.90385E-05  6.48980E-17  2.31755E+00 -1.12577E-07  1.0E-07
  5.250E-01  2.09899E-05  6.48973E-17  2.31753E+00 -1.18206E-07  1.0E-07
  5.500E-01  2.30365E-05  6.48967E-17  2.31750E+00 -1.23836E-07  1.0E-07
  5.750E-01  2.51783E-05  6.48960E-17  2.31748E+00 -1.29465E-07  1.0E-07
  6.000E-01  2.74153E-05  6.48953E-17  2.31745E+00 -1.35095E-07  1.0E-07
  6.250E-01  2.97475E-05  6.48945E-17  2.31743E+00 -1.40725E-07  1.0E-07
  6.500E-01  3.21749E-05  6.48937E-17  2.31740E+00 -1.46355E-07  1.0E-07
  6.750E-01  3.46974E-05  6.48929E-17  2.31737E+00 -1.51985E-07  1.0E-07
  7.000E-01  3.73152E-05  6.48921E-17  2.31734E+00 -1.57615E-07  1.0E-07
  7.250E-01  4.00281E-05  6.48912E-17  2.31731E+00 -1.63245E-07  1.0E-07
  7.500E-01  4.28362E-05  6.48903E-17  2.31727E+00 -1.68876E-07  1.0E-07
  7.750E-01  4.57395E-05  6.48894E-17  2.31724E+00 -1.74506E-07  1.0E-07
  8.000E-01  4.87380E-05  6.48884E-17  2.31721E+00 -1.80137E-07  1.0E-07
  8.250E-01  5.18317E-05  6.48874E-17  2.31717E+00 -1.85768E-07  1.0E-07
  8.500E-01  5.50205E-05  6.48864E-17  2.31713E+00 -1.91399E-07  1.0E-07
  8.750E-01  5.83045E-05  6.48853E-17  2.31710E+00 -1.97030E-07  1.0E-07
  9.000E-01  6.16838E-05  6.48842E-17  2.31706E+00 -2.02661E-07  1.0E-07
  9.250E-01  6.51582E-05  6.48831E-17  2.31702E+00 -2.08292E-07  1.0E-07
  9.500E-01  6.87277E-05  6.48820E-17  2.31698E+00 -2.13924E-07  1.0E-07
  9.750E-01  7.23925E-05  6.48808E-17  2.31693E+00 -2.19555E-07  1.0E-07
  1.000E+00  7.61524E-05  6.48796E-17  2.31689E+00 -2.25187E-07  1.0E-07
  1.100E+00  9.21439E-05  6.48744E-17  2.31671E+00 -2.47716E-07  1.0E-07
  1.200E+00  1.09658E-04  6.48688E-17  2.31651E+00 -2.70248E-07  1.0E-07
  1.300E+00  1.28695E-04  6.48627E-17  2.31629E+00 -2.92784E-07  1.0E-07
  1.400E+00  1.49255E-04  6.48560E-17  2.31605E+00 -3.15322E-07  1.0E-07
  1.500E+00  1.71338E-04  6.48489E-17  2.31580E+00 -3.37865E-07  1.0E-07
  1.600E+00  1.94942E-04  6.48414E-17  2.31553E+00 -3.60411E-07  1.0E-07
  1.700E+00  2.20070E-04  6.48333E-17  2.31524E+00 -3.82962E-07  1.0E-07
  1.800E+00  2.46720E-04  6.48247E-17  2.31493E+00 -4.05518E-07  1.0E-07
  1.900E+00  2.74892E-04  6.48156E-17  2.31461E+00 -4.28078E-07  1.0E-07
  2.000E+00  3.04586E-04  6.48061E-17  2.31427E+00 -4.50643E-07  1.0E-07
  2.100E+00  3.35803E-04  6.47961E-17  2.31391E+00 -4.73214E-07  1.0E-07
  2.200E+00  3.68542E-04  6.47855E-17  2.31353E+00 -4.95790E-07  1.0E-07
  2.300E+00  4.02802E-04  6.47745E-17  2.31314E+00 -5.18372E-07  1.0E-07
  2.400E+00  4.38585E-04  6.47630E-17  2.31273E+00 -5.40961E-07  1.0E-07
  2.500E+00  4.75889E-04  6.47511E-17  2.31230E+00 -5.63555E-07  1.0E-07
  2.600E+00  5.14715E-04  6.47386E-17  2.31186E+00 -5.86157E-07  1.0E-07
  2.700E+00  5.55063E-04  6.47257E-17  2.31140E+00 -6.08766E-07  1.0E-07
  2.800E+00  5.96931E-04  6.47122E-17  2.31092E+00 -6.31381E-07  1.0E-07
  2.900E+00  6.40321E-04  6.46983E-17  2.31042E+00 -6.54005E-07  1.0E-07
  3.000E+00  6.85233E-04  6.46839E-17  2.30990E+00 -6.76636E-07  1.0E-07
  3.100E+00  7.31665E-04  6.46690E-17  2.30937E+00 -6.99275E-07  1.0E-07
  3.200E+00  7.79618E-04  6.46537E-17  2.30882E+00 -7.21922E-07  1.0E-07
  3.300E+00  8.29092E-04  6.46378E-17  2.30826E+00 -7.44578E-07  1.0E-07
  3.400E+00  8.80086E-04  6.46215E-17  2.30767E+00 -7.67243E-07  1.0E-07
  3.500E+00  9.32601E-04  6.46047E-17  2.30707E+00 -7.89917E-07  1.0E-07
  3.600E+00  9.86636E-04  6.45874E-17  2.30646E+00 -8.12600E-07  1.0E-07
  3.700E+00  1.04219E-03  6.45696E-17  2.30582E+00 -8.35293E-07  1.0E-07
  3.800E+00  1.09927E-03  6.45513E-17  2.30517E+00 -8.57996E-07  1.0E-07
  3.900E+00  1.15786E-03  6.45326E-17  2.30450E+00 -8.80710E-07  1.0E-07
  4.000E+00  1.21797E-03  6.45134E-17  2.30382E+00 -9.03433E-07  1.0E-07
  4.100E+00  1.27961E-03  6.44937E-17  2.30311E+00 -9.26167E-07  1.0E-07
  4.200E+00  1.34276E-03  6.44736E-17  2.30239E+00 -9.48913E-07  1.0E-07
  4.300E+00  1.40743E-03  6.44529E-17  2.30166E+00 -9.71669E-07  1.0E-07
  4.400E+00  1.47362E-03  6.44318E-17  2.30090E+00 -9.94438E-07  1.0E-07
  4.500E+00  1.54133E-03  6.44102E-17  2.30013E+00 -1.01722E-06  1.0E-07
  4.600E+00  1.61056E-03  6.43882E-17  2.29934E+00 -1.04001E-06  1.0E-07
  4.700E+00  1.68131E-03  6.43656E-17  2.29854E+00 -1.06281E-06  1.0E-07
  4.800E+00  1.75357E-03  6.43426E-17  2.29772E+00 -1.08563E-06  1.0E-07
  4.900E+00  1.82735E-03  6.43192E-17  2.29688E+00 -1.10846E-06  1.0E-07
  5.000E+00  1.90265E-03  6.42952E-17  2.29602E+00 -1.13130E-06  1.0E-07
  5.100E+00  1.97947E-03  6.42708E-17  2.29515E+00 -1.15416E-06  1.0E-07
  5.200E+00  2.05780E-03  6.42459E-17  2.29426E+00 -1.17703E-06  1.0E-07
  5.300E+00  2.13765E-03  6.42205E-17  2.29336E+00 -1.19991E-06  1.0E-07
  5.400E+00  2.21902E-03  6.41947E-17  2.29244E+00 -1.22281E-06  1.0E-07
  5.500E+00  2.30190E-03  6.41684E-17  2.29150E+00 -1.24572E-06  1.0E-07
  5.600E+00  2.38630E-03  6.41417E-17  2.29054E+00 -1.26865E-06  1.0E-07
  5.700E+00  2.47222E-03  6.41145E-17  2.28957E+00 -1.29159E-06  1.0E-07
  5.800E+00  2.55965E-03  6.40868E-17  2.28858E+00 -1.31455E-06  1.0E-07
  5.900E+00  2.64859E-03  6.40586E-17  2.28757E+00 -1.33753E-06  1.0E-07
  6.000E+00  2.73905E-03  6.40300E-17  2.28655E+00 -1.36051E-06  1.0E-07
  6.100E+00  2.83103E-03  6.40009E-17  2.28552E+00 -1.38352E-06  1.0E-07
  6.200E+00  2.92452E-03  6.39714E-17  2.28446E+00 -1.40654E-06  1.0E-07
  6.300E+00  3.01952E-03  6.39414E-17  2.28339E+00 -1.42958E-06  1.0E-07
  6.400E+00  3.11604E-03  6.39110E-17  2.28230E+00 -1.45263E-06  1.0E-07
  6.500E+00  3.21407E-03  6.38801E-17  2.28120E+00 -1.47571E-06  1.0E-07
  6.600E+00  3.31362E-03  6.38487E-17  2.28008E+00 -1.49880E-06  1.0E-07
  6.700E+00  3.41468E-03  6.38169E-17  2.27894E+00 -1.52190E-06  1.0E-07
  6.800E+00  3.51725E-03  6.37846E-17  2.27779E+00 -1.54503E-06  1.0E-07
  6.900E+00  3.62133E-03  6.37519E-17  2.27662E+00 -1.56817E-06  1.0E-07
  7.000E+00  3.72692E-03  6.37187E-17  2.27544E+00 -1.59133E-06  1.0E-07
  7.100E+00  3.83403E-03  6.36851E-17  2.27424E+00 -1.61451E-06  1.0E-07
  7.200E+00  3.94265E-03  6.36510E-17  2.27302E+00 -1.63771E-06  1.0E-07
  7.300E+00  4.05278E-03  6.36165E-17  2.27179E+00 -1.66093E-06  1.0E-07
  7.400E+00  4.16442E-03  6.35815E-17  2.27054E+00 -1.68417E-06  1.0E-07
  7.500E+00  4.27757E-03  6.35461E-17  2.26927E+00 -1.70743E-06  1.0E-07
  7.600E+00  4.39223E-03  6.35102E-17  2.26799E+00 -1.73071E-06  1.0E-07
  7.700E+00  4.50840E-03  6.34739E-17  2.26670E+00 -1.75401E-06  1.0E-07
  7.800E+00  4.62608E-03  6.34372E-17  2.26538E+00 -1.77732E-06  1.0E-07
  7.900E+00  4.74527E-03  6.34000E-17  2.26405E+00 -1.80066E-06  1.0E-07
  8.000E+00  4.86597E-03  6.33624E-17  2.26271E+00 -1.82403E-06  1.0E-07
  8.100E+00  4.98817E-03  6.33243E-17  2.26135E+00 -1.84741E-06  1.0E-07
  8.200E+00  5.11188E-03  6.32858E-17  2.25998E+00 -1.87081E-06  1.0E-07
  8.300E+00  5.23711E-03  6.32468E-17  2.25859E+00 -1.89424E-06  1.0E-07
  8.400E+00  5.36383E-03  6.32075E-17  2.25718E+00 -1.91769E-06  1.0E-07
  8.500E+00  5.49207E-03  6.31676E-17  2.25576E+00 -1.94116E-06  1.0E-07
  8.600E+00  5.62181E-03  6.31274E-17  2.25432E+00 -1.96465E-06  1.0E-07
  8.700E+00  5.75306E-03  6.30867E-17  2.25287E+00 -1.98817E-06  1.0E-07
  8.800E+00  5.88581E-03  6.30456E-17  2.25140E+00 -2.01171E-06  1.0E-07
  8.900E+00  6.02007E-03  6.30041E-17  2.24992E+00 -2.03527E-06  1.0E-07
  9.000E+00  6.15583E-03  6.29621E-17  2.24842E+00 -2.05886E-06  1.0E-07
  9.100E+00  6.29310E-03  6.29197E-17  2.24690E+00 -2.08247E-06  1.0E-07
  9.200E+00  6.43187E-03  6.28769E-17  2.24537E+00 -2.10611E-06  1.0E-07
  9.300E+00  6.57214E-03  6.28337E-17  2.24383E+00 -2.12977E-06  1.0E-07
  9.400E+00  6.71392E-03  6.27900E-17  2.24227E+00 -2.15345E-06  1.0E-07
  9.500E+00  6.85720E-03  6.27459E-17  2.24070E+00 -2.17716E-06  1.0E-07
  9.600E+00  7.00198E-03  6.27014E-17  2.23911E+00 -2.20090E-06  1.0E-07
  9.700E+00  7.14827E-03  6.26565E-17  2.23750E+00 -2.22466E-06  1.0E-07
  9.800E+00  7.29605E-03  6.26112E-17  2.23589E+00 -2.24844E-06  1.0E-07
  9.900E+00  7.44534E-03  6.25654E-17  2.23425E+00 -2.27226E-06  1.0E-07
  1.000E+01  7.59612E-03  6.25193E-17  2.23260E+00 -2.29610E-06  1.0E-07
  1.025E+01  7.97965E-03  6.24021E-17  2.22842E+00 -2.35581E-06  1.0E-07
  1.050E+01  8.37255E-03  6.22823E-17  2.22414E+00 -2.41570E-06  1.0E-07
  1.075E+01  8.77480E-03  6.21600E-17  2.21978E+00 -2.47576E-06  1.0E-07
  1.100E+01  9.18641E-03  6.20353E-17  2.21532E+00 -2.53600E-06  1.0E-07
  1.125E+01  9.60736E-03  6.19080E-17  2.21077E+00 -2.59643E-06  1.0E-07
  1.150E+01  1.00376E-02  6.17783E-17  2.20614E+00 -2.65704E-06  1.0E-07
  1.175E+01  1.04773E-02  6.16462E-17  2.20142E+00 -2.71784E-06  1.0E-07
  1.200E+01  1.09262E-02  6.15116E-17  2.19662E+00 -2.77884E-06  1.0E-07
  1.225E+01  1.13844E-02  6.13747E-17  2.19173E+00 -2.84004E-06  1.0E-07
  1.250E+01  1.18520E-02  6.12355E-17  2.18676E+00 -2.90144E-06  1.0E-07
  1.275E+01  1.23288E-02  6.10939E-17  2.18170E+00 -2.96305E-06  1.0E-07
  1.300E+01  1.28150E-02  6.09500E-17  2.17656E+00 -3.02487E-06  1.0E-07
  1.325E+01  1.33104E-02  6.08039E-17  2.17135E+00 -3.08691E-06  1.0E-07
  1.350E+01  1.38150E-02  6.06555E-17  2.16605E+00 -3.14917E-06  1.0E-07
  1.375E+01  1.43290E-02  6.05049E-17  2.16067E+00 -3.21165E-06  1.0E-07
  1.400E+01  1.48521E-02  6.03521E-17  2.15521E+00 -3.27436E-06  1.0E-07
  1.425E+01  1.53845E-02  6.01972E-17  2.14968E+00 -3.33730E-06  1.0E-07
  1.450E+01  1.59262E-02  6.00402E-17  2.14407E+00 -3.40048E-06  1.0E-07
