 #
 # Subroutine ELSEPA. Elastic scattering of electrons and positrons
 #                    by neutral atoms and positive ions
 #
 # Projectile: electron
 # Kinetic energy = 1.50000E+02 eV = 5.51240E+00 a.u.
 #
 # Element:  H,  Z =   1,  atomic weight = 1.00790E+00 g/mol
 #
 # Nuclear model: Fermi distribution
 #                Average radius = 1.07281E-13 cm
 #                Skin thickness = 5.46000E-14 cm
 #
 # Number of electrons =  1
 #
 # Electron density: analytical DHFS model
 #                   A1 = -7.05665D-06 ,   ALPHA1 = 4.92969D+00
 #                   A2 = -1.84386D+02 ,   ALPHA2 = 2.00272D+00
 #                   A3 =  1.85386D+02 ,   ALPHA3 = 1.99732D+00
 #                   Volume integral = 1.00000E+00
 #
 # Furness-McCarthy exchange potential
 #
 # Total elastic cross section = 2.08972E-17 cm**2 = 7.46251E-01 a0**2
 # 1st transport cross section = 4.33825E-18 cm**2 = 1.54922E-01 a0**2
 # 2nd transport cross section = 8.61197E-18 cm**2 = 3.07539E-01 a0**2
 #
 #
 # Differential cross section:                       MU=(1-COS(THETA))/2
 #
 #  THETA        MU          DCS          DCS        Sherman      error
 #  (deg)                 (cm**2/sr)   (a0**2/sr)    function
 #----------------------------------------------------------------------
  0.000E+00  0.00000E+00  3.33996E-17  1.19272E+00  0.00000E+00  1.0E-07
  1.000E-04  7.61557E-13  3.33996E-17  1.19272E+00 -1.27818E-11  1.0E-07
  1.250E-04  1.18994E-12  3.33996E-17  1.19272E+00 -1.59773E-11  1.0E-07
  1.500E-04  1.71346E-12  3.33996E-17  1.19272E+00 -1.91727E-11  1.0E-07
  1.750E-04  2.33225E-12  3.33996E-17  1.19272E+00 -2.23682E-11  1.0E-07
  2.000E-04  3.04617E-12  3.33996E-17  1.19272E+00 -2.55636E-11  1.0E-07
  2.250E-04  3.85530E-12  3.33996E-17  1.19272E+00 -2.87591E-11  1.0E-07
  2.500E-04  4.75964E-12  3.33996E-17  1.19272E+00 -3.19545E-11  1.0E-07
  2.750E-04  5.75917E-12  3.33996E-17  1.19272E+00 -3.51500E-11  1.0E-07
  3.000E-04  6.85391E-12  3.33996E-17  1.19272E+00 -3.83454E-11  1.0E-07
  3.250E-04  8.04379E-12  3.33996E-17  1.19272E+00 -4.15409E-11  1.0E-07
  3.500E-04  9.32893E-12  3.33996E-17  1.19272E+00 -4.47363E-11  1.0E-07
  3.750E-04  1.07092E-11  3.33996E-17  1.19272E+00 -4.79318E-11  1.0E-07
  4.000E-04  1.21847E-11  3.33996E-17  1.19272E+00 -5.11272E-11  1.0E-07
  4.250E-04  1.37554E-11  3.33996E-17  1.19272E+00 -5.43227E-11  1.0E-07
  4.500E-04  1.54213E-11  3.33996E-17  1.19272E+00 -5.75181E-11  1.0E-07
  4.750E-04  1.71823E-11  3.33996E-17  1.19272E+00 -6.07136E-11  1.0E-07
  5.000E-04  1.90386E-11  3.33996E-17  1.19272E+00 -6.39090E-11  1.0E-07
  5.250E-04  2.09900E-11  3.33996E-17  1.19272E+00 -6.71045E-11  1.0E-07
  5.500E-04  2.30367E-11  3.33996E-17  1.19272E+00 -7.02999E-11  1.0E-07
  5.750E-04  2.51785E-11  3.33996E-17  1.19272E+00 -7.34954E-11  1.0E-07
  6.000E-04  2.74156E-11  3.33996E-17  1.19272E+00 -7.66908E-11  1.0E-07
  6.250E-04  2.97478E-11  3.33996E-17  1.19272E+00 -7.98863E-11  1.0E-07
  6.500E-04  3.21752E-11  3.33996E-17  1.19272E+00 -8.30817E-11  1.0E-07
  6.750E-04  3.46979E-11  3.33996E-17  1.19272E+00 -8.62772E-11  1.0E-07
  7.000E-04  3.73157E-11  3.33996E-17  1.19272E+00 -8.94726E-11  1.0E-07
  7.250E-04  4.00286E-11  3.33996E-17  1.19272E+00 -9.26681E-11  1.0E-07
  7.500E-04  4.28368E-11  3.33996E-17  1.19272E+00 -9.58635E-11  1.0E-07
  7.750E-04  4.57402E-11  3.33996E-17  1.19272E+00 -9.90590E-11  1.0E-07
  8.000E-04  4.87388E-11  3.33996E-17  1.19272E+00 -1.02254E-10  1.0E-07
  8.250E-04  5.18325E-11  3.33996E-17  1.19272E+00 -1.05450E-10  1.0E-07
  8.500E-04  5.50215E-11  3.33996E-17  1.19272E+00 -1.08645E-10  1.0E-07
  8.750E-04  5.83057E-11  3.33996E-17  1.19272E+00 -1.11841E-10  1.0E-07
  9.000E-04  6.16850E-11  3.33996E-17  1.19272E+00 -1.15036E-10  1.0E-07
  9.250E-04  6.51595E-11  3.33996E-17  1.19272E+00 -1.18232E-10  1.0E-07
  9.500E-04  6.87293E-11  3.33996E-17  1.19272E+00 -1.21427E-10  1.0E-07
  9.750E-04  7.23943E-11  3.33996E-17  1.19272E+00 -1.24623E-10  1.0E-07
  1.000E-03  7.61544E-11  3.33996E-17  1.19272E+00 -1.27818E-10  1.0E-07
  1.250E-03  1.18991E-10  3.33996E-17  1.19272E+00 -1.59773E-10  1.0E-07
  1.500E-03  1.71347E-10  3.33996E-17  1.19272E+00 -1.91727E-10  1.0E-07
  1.750E-03  2.33223E-10  3.33996E-17  1.19272E+00 -2.23682E-10  1.0E-07
  2.000E-03  3.04617E-10  3.33996E-17  1.19272E+00 -2.55636E-10  1.0E-07
  2.250E-03  3.85531E-10  3.33996E-17  1.19272E+00 -2.87591E-10  1.0E-07
  2.500E-03  4.75965E-10  3.33996E-17  1.19272E+00 -3.19545E-10  1.0E-07
  2.750E-03  5.75917E-10  3.33996E-17  1.19272E+00 -3.51500E-10  1.0E-07
  3.000E-03  6.85389E-10  3.33996E-17  1.19272E+00 -3.83454E-10  1.0E-07
  3.250E-03  8.04380E-10  3.33996E-17  1.19272E+00 -4.15409E-10  1.0E-07
  3.500E-03  9.32891E-10  3.33996E-17  1.19272E+00 -4.47363E-10  1.0E-07
  3.750E-03  1.07092E-09  3.33996E-17  1.19272E+00 -4.79318E-10  1.0E-07
  4.000E-03  1.21847E-09  3.33996E-17  1.19272E+00 -5.11272E-10  1.0E-07
  4.250E-03  1.37554E-09  3.33996E-17  1.19272E+00 -5.43227E-10  1.0E-07
  4.500E-03  1.54213E-09  3.33996E-17  1.19272E+00 -5.75181E-10  1.0E-07
  4.750E-03  1.71823E-09  3.33996E-17  1.19272E+00 -6.07136E-10  1.0E-07
  5.000E-03  1.90386E-09  3.33996E-17  1.19272E+00 -6.39090E-10  1.0E-07
  5.250E-03  2.09900E-09  3.33996E-17  1.19272E+00 -6.71045E-10  1.0E-07
  5.500E-03  2.30367E-09  3.33996E-17  1.19272E+00 -7.02999E-10  1.0E-07
  5.750E-03  2.51785E-09  3.33996E-17  1.19272E+00 -7.34954E-10  1.0E-07
  6.000E-03  2.74156E-09  3.33996E-17  1.19272E+00 -7.66908E-10  1.0E-07
  6.250E-03  2.97478E-09  3.33996E-17  1.19272E+00 -7.98863E-10  1.0E-07
  6.500E-03  3.21752E-09  3.33996E-17  1.19272E+00 -8.30817E-10  1.0E-07
  6.750E-03  3.46978E-09  3.33996E-17  1.19272E+00 -8.62772E-10  1.0E-07
  7.000E-03  3.73156E-09  3.33996E-17  1.19272E+00 -8.94726E-10  1.0E-07
  7.250E-03  4.00286E-09  3.33996E-17  1.19272E+00 -9.26681E-10  1.0E-07
  7.500E-03  4.28368E-09  3.33996E-17  1.19272E+00 -9.58635E-10  1.0E-07
  7.750E-03  4.57402E-09  3.33996E-17  1.19272E+00 -9.90590E-10  1.0E-07
  8.000E-03  4.87388E-09  3.33996E-17  1.19272E+00 -1.02254E-09  1.0E-07
  8.250E-03  5.18326E-09  3.33996E-17  1.19272E+00 -1.05450E-09  1.0E-07
  8.500E-03  5.50215E-09  3.33996E-17  1.19272E+00 -1.08645E-09  1.0E-07
  8.750E-03  5.83057E-09  3.33996E-17  1.19272E+00 -1.11841E-09  1.0E-07
  9.000E-03  6.16850E-09  3.33996E-17  1.19272E+00 -1.15036E-09  1.0E-07
  9.250E-03  6.51596E-09  3.33996E-17  1.19272E+00 -1.18232E-09  1.0E-07
  9.500E-03  6.87293E-09  3.33996E-17  1.19272E+00 -1.21427E-09  1.0E-07
  9.750E-03  7.23942E-09  3.33996E-17  1.19272E+00 -1.24623E-09  1.0E-07
  1.000E-02  7.61544E-09  3.33996E-17  1.19272E+00 -1.27818E-09  1.0E-07
  1.250E-02  1.18991E-08  3.33996E-17  1.19272E+00 -1.59773E-09  1.0E-07
  1.500E-02  1.71347E-08  3.33996E-17  1.19272E+00 -1.91727E-09  1.0E-07
  1.750E-02  2.33223E-08  3.33995E-17  1.19272E+00 -2.23682E-09  1.0E-07
  2.000E-02  3.04617E-08  3.33995E-17  1.19272E+00 -2.55636E-09  1.0E-07
  2.250E-02  3.85531E-08  3.33995E-17  1.19272E+00 -2.87591E-09  1.0E-07
  2.500E-02  4.75965E-08  3.33995E-17  1.19272E+00 -3.19545E-09  1.0E-07
  2.750E-02  5.75917E-08  3.33995E-17  1.19272E+00 -3.51500E-09  1.0E-07
  3.000E-02  6.85389E-08  3.33995E-17  1.19272E+00 -3.83455E-09  1.0E-07
  3.250E-02  8.04380E-08  3.33995E-17  1.19272E+00 -4.15409E-09  1.0E-07
  3.500E-02  9.32891E-08  3.33995E-17  1.19272E+00 -4.47364E-09  1.0E-07
  3.750E-02  1.07092E-07  3.33994E-17  1.19272E+00 -4.79319E-09  1.0E-07
  4.000E-02  1.21847E-07  3.33994E-17  1.19272E+00 -5.11273E-09  1.0E-07
  4.250E-02  1.37554E-07  3.33994E-17  1.19271E+00 -5.43228E-09  1.0E-07
  4.500E-02  1.54213E-07  3.33994E-17  1.19271E+00 -5.75183E-09  1.0E-07
  4.750E-02  1.71823E-07  3.33994E-17  1.19271E+00 -6.07138E-09  1.0E-07
  5.000E-02  1.90386E-07  3.33994E-17  1.19271E+00 -6.39092E-09  1.0E-07
  5.250E-02  2.09900E-07  3.33993E-17  1.19271E+00 -6.71047E-09  1.0E-07
  5.500E-02  2.30367E-07  3.33993E-17  1.19271E+00 -7.03002E-09  1.0E-07
  5.750E-02  2.51785E-07  3.33993E-17  1.19271E+00 -7.34957E-09  1.0E-07
  6.000E-02  2.74156E-07  3.33993E-17  1.19271E+00 -7.66912E-09  1.0E-07
  6.250E-02  2.97478E-07  3.33992E-17  1.19271E+00 -7.98867E-09  1.0E-07
  6.500E-02  3.21752E-07  3.33992E-17  1.19271E+00 -8.30822E-09  1.0E-07
  6.750E-02  3.46978E-07  3.33992E-17  1.19271E+00 -8.62777E-09  1.0E-07
  7.000E-02  3.73156E-07  3.33991E-17  1.19271E+00 -8.94732E-09  1.0E-07
  7.250E-02  4.00286E-07  3.33991E-17  1.19270E+00 -9.26687E-09  1.0E-07
  7.500E-02  4.28368E-07  3.33991E-17  1.19270E+00 -9.58643E-09  1.0E-07
  7.750E-02  4.57402E-07  3.33991E-17  1.19270E+00 -9.90598E-09  1.0E-07
  8.000E-02  4.87388E-07  3.33990E-17  1.19270E+00 -1.02255E-08  1.0E-07
  8.250E-02  5.18325E-07  3.33990E-17  1.19270E+00 -1.05451E-08  1.0E-07
  8.500E-02  5.50215E-07  3.33989E-17  1.19270E+00 -1.08646E-08  1.0E-07
  8.750E-02  5.83057E-07  3.33989E-17  1.19270E+00 -1.11842E-08  1.0E-07
  9.000E-02  6.16850E-07  3.33989E-17  1.19270E+00 -1.15038E-08  1.0E-07
  9.250E-02  6.51596E-07  3.33988E-17  1.19269E+00 -1.18233E-08  1.0E-07
  9.500E-02  6.87293E-07  3.33988E-17  1.19269E+00 -1.21429E-08  1.0E-07
  9.750E-02  7.23942E-07  3.33988E-17  1.19269E+00 -1.24624E-08  1.0E-07
  1.000E-01  7.61543E-07  3.33987E-17  1.19269E+00 -1.27820E-08  1.0E-07
  1.250E-01  1.18991E-06  3.33982E-17  1.19267E+00 -1.59776E-08  1.0E-07
  1.500E-01  1.71347E-06  3.33976E-17  1.19265E+00 -1.91733E-08  1.0E-07
  1.750E-01  2.33223E-06  3.33969E-17  1.19263E+00 -2.23691E-08  1.0E-07
  2.000E-01  3.04617E-06  3.33961E-17  1.19260E+00 -2.55650E-08  1.0E-07
  2.250E-01  3.85531E-06  3.33952E-17  1.19256E+00 -2.87611E-08  1.0E-07
  2.500E-01  4.75964E-06  3.33942E-17  1.19253E+00 -3.19573E-08  1.0E-07
  2.750E-01  5.75916E-06  3.33931E-17  1.19249E+00 -3.51536E-08  1.0E-07
  3.000E-01  6.85388E-06  3.33918E-17  1.19244E+00 -3.83502E-08  1.0E-07
  3.250E-01  8.04378E-06  3.33905E-17  1.19240E+00 -4.15469E-08  1.0E-07
  3.500E-01  9.32888E-06  3.33890E-17  1.19234E+00 -4.47439E-08  1.0E-07
  3.750E-01  1.07092E-05  3.33875E-17  1.19229E+00 -4.79411E-08  1.0E-07
  4.000E-01  1.21846E-05  3.33858E-17  1.19223E+00 -5.11385E-08  1.0E-07
  4.250E-01  1.37553E-05  3.33840E-17  1.19216E+00 -5.43362E-08  1.0E-07
  4.500E-01  1.54212E-05  3.33821E-17  1.19210E+00 -5.75342E-08  1.0E-07
  4.750E-01  1.71822E-05  3.33801E-17  1.19203E+00 -6.07325E-08  1.0E-07
  5.000E-01  1.90385E-05  3.33780E-17  1.19195E+00 -6.39311E-08  1.0E-07
  5.250E-01  2.09899E-05  3.33758E-17  1.19187E+00 -6.71300E-08  1.0E-07
  5.500E-01  2.30365E-05  3.33735E-17  1.19179E+00 -7.03293E-08  1.0E-07
  5.750E-01  2.51783E-05  3.33711E-17  1.19170E+00 -7.35289E-08  1.0E-07
  6.000E-01  2.74153E-05  3.33686E-17  1.19161E+00 -7.67290E-08  1.0E-07
  6.250E-01  2.97475E-05  3.33660E-17  1.19152E+00 -7.99294E-08  1.0E-07
  6.500E-01  3.21749E-05  3.33632E-17  1.19142E+00 -8.31302E-08  1.0E-07
  6.750E-01  3.46974E-05  3.33604E-17  1.19132E+00 -8.63315E-08  1.0E-07
  7.000E-01  3.73152E-05  3.33574E-17  1.19121E+00 -8.95332E-08  1.0E-07
  7.250E-01  4.00281E-05  3.33543E-17  1.19111E+00 -9.27354E-08  1.0E-07
  7.500E-01  4.28362E-05  3.33512E-17  1.19099E+00 -9.59380E-08  1.0E-07
  7.750E-01  4.57395E-05  3.33479E-17  1.19088E+00 -9.91412E-08  1.0E-07
  8.000E-01  4.87380E-05  3.33445E-17  1.19075E+00 -1.02345E-07  1.0E-07
  8.250E-01  5.18317E-05  3.33410E-17  1.19063E+00 -1.05549E-07  1.0E-07
  8.500E-01  5.50205E-05  3.33374E-17  1.19050E+00 -1.08754E-07  1.0E-07
  8.750E-01  5.83045E-05  3.33337E-17  1.19037E+00 -1.11959E-07  1.0E-07
  9.000E-01  6.16838E-05  3.33299E-17  1.19023E+00 -1.15165E-07  1.0E-07
  9.250E-01  6.51582E-05  3.33260E-17  1.19009E+00 -1.18371E-07  1.0E-07
  9.500E-01  6.87277E-05  3.33220E-17  1.18995E+00 -1.21579E-07  1.0E-07
  9.750E-01  7.23925E-05  3.33178E-17  1.18980E+00 -1.24786E-07  1.0E-07
  1.000E+00  7.61524E-05  3.33136E-17  1.18965E+00 -1.27995E-07  1.0E-07
  1.100E+00  9.21439E-05  3.32956E-17  1.18901E+00 -1.40835E-07  1.0E-07
  1.200E+00  1.09658E-04  3.32759E-17  1.18830E+00 -1.53687E-07  1.0E-07
  1.300E+00  1.28695E-04  3.32545E-17  1.18754E+00 -1.66551E-07  1.0E-07
  1.400E+00  1.49255E-04  3.32314E-17  1.18671E+00 -1.79430E-07  1.0E-07
  1.500E+00  1.71338E-04  3.32066E-17  1.18583E+00 -1.92323E-07  1.0E-07
  1.600E+00  1.94942E-04  3.31801E-17  1.18488E+00 -2.05232E-07  1.0E-07
  1.700E+00  2.20070E-04  3.31520E-17  1.18388E+00 -2.18159E-07  1.0E-07
  1.800E+00  2.46720E-04  3.31222E-17  1.18281E+00 -2.31103E-07  1.0E-07
  1.900E+00  2.74892E-04  3.30907E-17  1.18169E+00 -2.44066E-07  1.0E-07
  2.000E+00  3.04586E-04  3.30575E-17  1.18051E+00 -2.57050E-07  1.0E-07
  2.100E+00  3.35803E-04  3.30228E-17  1.17926E+00 -2.70054E-07  1.0E-07
  2.200E+00  3.68542E-04  3.29863E-17  1.17796E+00 -2.83081E-07  1.0E-07
  2.300E+00  4.02802E-04  3.29483E-17  1.17660E+00 -2.96132E-07  1.0E-07
  2.400E+00  4.38585E-04  3.29086E-17  1.17519E+00 -3.09207E-07  1.0E-07
  2.500E+00  4.75889E-04  3.28673E-17  1.17371E+00 -3.22307E-07  1.0E-07
  2.600E+00  5.14715E-04  3.28244E-17  1.17218E+00 -3.35434E-07  1.0E-07
  2.700E+00  5.55063E-04  3.27799E-17  1.17059E+00 -3.48589E-07  1.0E-07
  2.800E+00  5.96931E-04  3.27338E-17  1.16895E+00 -3.61772E-07  1.0E-07
  2.900E+00  6.40321E-04  3.26861E-17  1.16724E+00 -3.74985E-07  1.0E-07
  3.000E+00  6.85233E-04  3.26369E-17  1.16548E+00 -3.88229E-07  1.0E-07
  3.100E+00  7.31665E-04  3.25861E-17  1.16367E+00 -4.01505E-07  1.0E-07
  3.200E+00  7.79618E-04  3.25337E-17  1.16180E+00 -4.14814E-07  1.0E-07
  3.300E+00  8.29092E-04  3.24798E-17  1.15988E+00 -4.28157E-07  1.0E-07
  3.400E+00  8.80086E-04  3.24244E-17  1.15790E+00 -4.41535E-07  1.0E-07
  3.500E+00  9.32601E-04  3.23675E-17  1.15586E+00 -4.54950E-07  1.0E-07
  3.600E+00  9.86636E-04  3.23090E-17  1.15378E+00 -4.68402E-07  1.0E-07
  3.700E+00  1.04219E-03  3.22491E-17  1.15164E+00 -4.81892E-07  1.0E-07
  3.800E+00  1.09927E-03  3.21877E-17  1.14944E+00 -4.95422E-07  1.0E-07
  3.900E+00  1.15786E-03  3.21248E-17  1.14720E+00 -5.08993E-07  1.0E-07
  4.000E+00  1.21797E-03  3.20605E-17  1.14490E+00 -5.22605E-07  1.0E-07
  4.100E+00  1.27961E-03  3.19947E-17  1.14255E+00 -5.36260E-07  1.0E-07
  4.200E+00  1.34276E-03  3.19275E-17  1.14015E+00 -5.49959E-07  1.0E-07
  4.300E+00  1.40743E-03  3.18589E-17  1.13770E+00 -5.63702E-07  1.0E-07
  4.400E+00  1.47362E-03  3.17889E-17  1.13520E+00 -5.77492E-07  1.0E-07
  4.500E+00  1.54133E-03  3.17175E-17  1.13265E+00 -5.91329E-07  1.0E-07
  4.600E+00  1.61056E-03  3.16447E-17  1.13005E+00 -6.05214E-07  1.0E-07
  4.700E+00  1.68131E-03  3.15705E-17  1.12740E+00 -6.19149E-07  1.0E-07
  4.800E+00  1.75357E-03  3.14951E-17  1.12471E+00 -6.33134E-07  1.0E-07
  4.900E+00  1.82735E-03  3.14183E-17  1.12197E+00 -6.47170E-07  1.0E-07
  5.000E+00  1.90265E-03  3.13401E-17  1.11918E+00 -6.61259E-07  1.0E-07
  5.100E+00  1.97947E-03  3.12607E-17  1.11634E+00 -6.75402E-07  1.0E-07
  5.200E+00  2.05780E-03  3.11800E-17  1.11346E+00 -6.89600E-07  1.0E-07
  5.300E+00  2.13765E-03  3.10981E-17  1.11053E+00 -7.03854E-07  1.0E-07
  5.400E+00  2.21902E-03  3.10149E-17  1.10756E+00 -7.18164E-07  1.0E-07
  5.500E+00  2.30190E-03  3.09304E-17  1.10454E+00 -7.32533E-07  1.0E-07
  5.600E+00  2.38630E-03  3.08447E-17  1.10149E+00 -7.46962E-07  1.0E-07
  5.700E+00  2.47222E-03  3.07579E-17  1.09838E+00 -7.61450E-07  1.0E-07
  5.800E+00  2.55965E-03  3.06698E-17  1.09524E+00 -7.76000E-07  1.0E-07
  5.900E+00  2.64859E-03  3.05806E-17  1.09205E+00 -7.90613E-07  1.0E-07
  6.000E+00  2.73905E-03  3.04902E-17  1.08883E+00 -8.05290E-07  1.0E-07
  6.100E+00  2.83103E-03  3.03987E-17  1.08556E+00 -8.20031E-07  1.0E-07
  6.200E+00  2.92452E-03  3.03061E-17  1.08225E+00 -8.34839E-07  1.0E-07
  6.300E+00  3.01952E-03  3.02124E-17  1.07890E+00 -8.49713E-07  1.0E-07
  6.400E+00  3.11604E-03  3.01176E-17  1.07552E+00 -8.64656E-07  1.0E-07
  6.500E+00  3.21407E-03  3.00217E-17  1.07209E+00 -8.79668E-07  1.0E-07
  6.600E+00  3.31362E-03  2.99248E-17  1.06863E+00 -8.94751E-07  1.0E-07
  6.700E+00  3.41468E-03  2.98268E-17  1.06514E+00 -9.09906E-07  1.0E-07
  6.800E+00  3.51725E-03  2.97279E-17  1.06160E+00 -9.25133E-07  1.0E-07
  6.900E+00  3.62133E-03  2.96279E-17  1.05803E+00 -9.40434E-07  1.0E-07
  7.000E+00  3.72692E-03  2.95270E-17  1.05443E+00 -9.55810E-07  1.0E-07
  7.100E+00  3.83403E-03  2.94251E-17  1.05079E+00 -9.71263E-07  1.0E-07
  7.200E+00  3.94265E-03  2.93222E-17  1.04712E+00 -9.86793E-07  1.0E-07
  7.300E+00  4.05278E-03  2.92185E-17  1.04341E+00 -1.00240E-06  1.0E-07
  7.400E+00  4.16442E-03  2.91138E-17  1.03967E+00 -1.01809E-06  1.0E-07
  7.500E+00  4.27757E-03  2.90083E-17  1.03590E+00 -1.03386E-06  1.0E-07
  7.600E+00  4.39223E-03  2.89019E-17  1.03210E+00 -1.04971E-06  1.0E-07
  7.700E+00  4.50840E-03  2.87946E-17  1.02827E+00 -1.06564E-06  1.0E-07
  7.800E+00  4.62608E-03  2.86865E-17  1.02441E+00 -1.08166E-06  1.0E-07
  7.900E+00  4.74527E-03  2.85776E-17  1.02052E+00 -1.09776E-06  1.0E-07
  8.000E+00  4.86597E-03  2.84679E-17  1.01661E+00 -1.11395E-06  1.0E-07
  8.100E+00  4.98817E-03  2.83574E-17  1.01266E+00 -1.13023E-06  1.0E-07
  8.200E+00  5.11188E-03  2.82461E-17  1.00869E+00 -1.14660E-06  1.0E-07
  8.300E+00  5.23711E-03  2.81342E-17  1.00469E+00 -1.16306E-06  1.0E-07
  8.400E+00  5.36383E-03  2.80214E-17  1.00066E+00 -1.17961E-06  1.0E-07
  8.500E+00  5.49207E-03  2.79080E-17  9.96614E-01 -1.19625E-06  1.0E-07
  8.600E+00  5.62181E-03  2.77939E-17  9.92540E-01 -1.21298E-06  1.0E-07
  8.700E+00  5.75306E-03  2.76792E-17  9.88442E-01 -1.22981E-06  1.0E-07
  8.800E+00  5.88581E-03  2.75638E-17  9.84320E-01 -1.24673E-06  1.0E-07
  8.900E+00  6.02007E-03  2.74477E-17  9.80176E-01 -1.26376E-06  1.0E-07
  9.000E+00  6.15583E-03  2.73311E-17  9.76011E-01 -1.28088E-06  1.0E-07
  9.100E+00  6.29310E-03  2.72138E-17  9.71824E-01 -1.29810E-06  1.0E-07
  9.200E+00  6.43187E-03  2.70960E-17  9.67616E-01 -1.31542E-06  1.0E-07
  9.300E+00  6.57214E-03  2.69776E-17  9.63389E-01 -1.33284E-06  1.0E-07
  9.400E+00  6.71392E-03  2.68587E-17  9.59142E-01 -1.35037E-06  1.0E-07
  9.500E+00  6.85720E-03  2.67393E-17  9.54876E-01 -1.36800E-06  1.0E-07
  9.600E+00  7.00198E-03  2.66193E-17  9.50593E-01 -1.38574E-06  1.0E-07
  9.700E+00  7.14827E-03  2.64989E-17  9.46292E-01 -1.40358E-06  1.0E-07
  9.800E+00  7.29605E-03  2.63780E-17  9.41975E-01 -1.42153E-06  1.0E-07
  9.900E+00  7.44534E-03  2.62566E-17  9.37641E-01 -1.43959E-06  1.0E-07
  1.000E+01  7.59612E-03  2.61348E-17  9.33292E-01 -1.45776E-06  1.0E-07
  1.025E+01  7.97965E-03  2.58286E-17  9.22355E-01 -1.50367E-06  1.0E-07
  1.050E+01  8.37255E-03  2.55200E-17  9.11335E-01 -1.55031E-06  1.0E-07
  1.075E+01  8.77480E-03  2.52093E-17  9.00241E-01 -1.59767E-06  1.0E-07
  1.100E+01  9.18641E-03  2.48968E-17  8.89083E-01 -1.64580E-06  1.0E-07
  1.125E+01  9.60736E-03  2.45828E-17  8.77869E-01 -1.69469E-06  1.0E-07
  1.150E+01  1.00376E-02  2.42675E-17  8.66609E-01 -1.74438E-06  1.0E-07
  1.175E+01  1.04773E-02  2.39511E-17  8.55311E-01 -1.79489E-06  1.0E-07
  1.200E+01  1.09262E-02  2.36340E-17  8.43984E-01 -1.84622E-06  1.0E-07
  1.225E+01  1.13844E-02  2.33162E-17  8.32636E-01 -1.89841E-06  1.0E-07
  1.250E+01  1.18520E-02  2.29981E-17  8.21276E-01 -1.95146E-06  1.0E-07
  1.275E+01  1.23288E-02  2.26798E-17  8.09911E-01 -2.00541E-06  1.0E-07
  1.300E+01  1.28150E-02  2.23617E-17  7.98549E-01 -2.06027E-06  1.0E-07
  1.325E+01  1.33104E-02  2.20438E-17  7.87198E-01 -2.11606E-06  1.0E-07
  1.350E+01  1.38150E-02  2.17264E-17  7.75864E-01 -2.17281E-06  1.0E-07
  1.375E+01  1.43290E-02  2.14097E-17  7.64555E-01 -2.23052E-06  1.0E-07
  1.400E+01  1.48521E-02  2.10939E-17  7.53278E-01 -2.28922E-06  1.0E-07
  1.425E+01  1.53845E-02  2.07792E-17  7.42038E-01 -2.34894E-06  1.0E-07
  1.450E+01  1.59262E-02  2.04657E-17  7.30842E-01 -2.40969E-06  1.0E-07
  1.475E+01  1.64770E-02  2.01535E-17  7.19696E-01 -2.47149E-06  1.0E-07
  1.500E+01  1.70371E-02  1.98430E-17  7.08606E-01 -2.53436E-06  1.0E-07
