 #
 # Subroutine ELSEPA. Elastic scattering of electrons and positrons
 #                    by neutral atoms and positive ions
 #
 # Projectile: electron
 # Kinetic energy = 2.00000E+03 eV = 7.34987E+01 a.u.
 #
 # Element: Hg,  Z =  80,  atomic weight = 2.00590E+02 g/mol
 #
 # Nuclear model: Fermi distribution
 #                Average radius = 6.26355E-13 cm
 #                Skin thickness = 5.46000E-14 cm
 #
 # Number of electrons = 80
 #
 # Electron density: analytical DHFS model
 #                   A1 =  2.09753D-01 ,   ALPHA1 = 2.44080D+01
 #                   A2 =  6.00426D-01 ,   ALPHA2 = 3.96429D+00
 #                   A3 =  1.89821D-01 ,   ALPHA3 = 1.53432D+00
 #                   Volume integral = 8.00000E+01
 #
 # Furness-McCarthy exchange potential
 #
 # Total elastic cross section = 1.71175E-16 cm**2 = 6.11277E+00 a0**2
 # 1st transport cross section = 3.63825E-17 cm**2 = 1.29924E+00 a0**2
 # 2nd transport cross section = 3.44100E-17 cm**2 = 1.22880E+00 a0**2
 #
 #
 # Differential cross section:                       MU=(1-COS(THETA))/2
 #
 #  THETA        MU          DCS          DCS        Sherman      error
 #  (deg)                 (cm**2/sr)   (a0**2/sr)    function
 #----------------------------------------------------------------------
  0.000E+00  0.00000E+00  3.19915E-15  1.14244E+02  0.00000E+00  1.0E-07
  1.000E-04  7.61557E-13  3.19915E-15  1.14244E+02  4.68801E-09  1.0E-07
  1.250E-04  1.18994E-12  3.19915E-15  1.14244E+02  5.86001E-09  1.0E-07
  1.500E-04  1.71346E-12  3.19915E-15  1.14244E+02  7.03202E-09  1.0E-07
  1.750E-04  2.33225E-12  3.19915E-15  1.14244E+02  8.20402E-09  1.0E-07
  2.000E-04  3.04617E-12  3.19915E-15  1.14244E+02  9.37602E-09  1.0E-07
  2.250E-04  3.85530E-12  3.19915E-15  1.14244E+02  1.05480E-08  1.0E-07
  2.500E-04  4.75964E-12  3.19915E-15  1.14244E+02  1.17200E-08  1.0E-07
  2.750E-04  5.75917E-12  3.19915E-15  1.14244E+02  1.28920E-08  1.0E-07
  3.000E-04  6.85391E-12  3.19915E-15  1.14244E+02  1.40640E-08  1.0E-07
  3.250E-04  8.04379E-12  3.19915E-15  1.14244E+02  1.52360E-08  1.0E-07
  3.500E-04  9.32893E-12  3.19915E-15  1.14244E+02  1.64080E-08  1.0E-07
  3.750E-04  1.07092E-11  3.19915E-15  1.14244E+02  1.75800E-08  1.0E-07
  4.000E-04  1.21847E-11  3.19915E-15  1.14244E+02  1.87520E-08  1.0E-07
  4.250E-04  1.37554E-11  3.19915E-15  1.14244E+02  1.99240E-08  1.0E-07
  4.500E-04  1.54213E-11  3.19915E-15  1.14244E+02  2.10960E-08  1.0E-07
  4.750E-04  1.71823E-11  3.19915E-15  1.14244E+02  2.22680E-08  1.0E-07
  5.000E-04  1.90386E-11  3.19915E-15  1.14244E+02  2.34401E-08  1.0E-07
  5.250E-04  2.09900E-11  3.19915E-15  1.14244E+02  2.46121E-08  1.0E-07
  5.500E-04  2.30367E-11  3.19915E-15  1.14244E+02  2.57841E-08  1.0E-07
  5.750E-04  2.51785E-11  3.19915E-15  1.14244E+02  2.69561E-08  1.0E-07
  6.000E-04  2.74156E-11  3.19915E-15  1.14244E+02  2.81281E-08  1.0E-07
  6.250E-04  2.97478E-11  3.19915E-15  1.14244E+02  2.93001E-08  1.0E-07
  6.500E-04  3.21752E-11  3.19915E-15  1.14244E+02  3.04721E-08  1.0E-07
  6.750E-04  3.46979E-11  3.19915E-15  1.14244E+02  3.16441E-08  1.0E-07
  7.000E-04  3.73157E-11  3.19915E-15  1.14244E+02  3.28161E-08  1.0E-07
  7.250E-04  4.00286E-11  3.19915E-15  1.14244E+02  3.39881E-08  1.0E-07
  7.500E-04  4.28368E-11  3.19915E-15  1.14244E+02  3.51601E-08  1.0E-07
  7.750E-04  4.57402E-11  3.19915E-15  1.14244E+02  3.63321E-08  1.0E-07
  8.000E-04  4.87388E-11  3.19915E-15  1.14244E+02  3.75041E-08  1.0E-07
  8.250E-04  5.18325E-11  3.19915E-15  1.14244E+02  3.86761E-08  1.0E-07
  8.500E-04  5.50215E-11  3.19915E-15  1.14244E+02  3.98481E-08  1.0E-07
  8.750E-04  5.83057E-11  3.19915E-15  1.14244E+02  4.10201E-08  1.0E-07
  9.000E-04  6.16850E-11  3.19915E-15  1.14244E+02  4.21921E-08  1.0E-07
  9.250E-04  6.51595E-11  3.19915E-15  1.14244E+02  4.33641E-08  1.0E-07
  9.500E-04  6.87293E-11  3.19915E-15  1.14244E+02  4.45361E-08  1.0E-07
  9.750E-04  7.23943E-11  3.19915E-15  1.14244E+02  4.57081E-08  1.0E-07
  1.000E-03  7.61544E-11  3.19915E-15  1.14244E+02  4.68801E-08  1.0E-07
  1.250E-03  1.18991E-10  3.19915E-15  1.14244E+02  5.86001E-08  1.0E-07
  1.500E-03  1.71347E-10  3.19915E-15  1.14244E+02  7.03202E-08  1.0E-07
  1.750E-03  2.33223E-10  3.19915E-15  1.14244E+02  8.20402E-08  1.0E-07
  2.000E-03  3.04617E-10  3.19915E-15  1.14244E+02  9.37602E-08  1.0E-07
  2.250E-03  3.85531E-10  3.19915E-15  1.14244E+02  1.05480E-07  1.0E-07
  2.500E-03  4.75965E-10  3.19915E-15  1.14244E+02  1.17200E-07  1.0E-07
  2.750E-03  5.75917E-10  3.19915E-15  1.14244E+02  1.28920E-07  1.0E-07
  3.000E-03  6.85389E-10  3.19915E-15  1.14244E+02  1.40640E-07  1.0E-07
  3.250E-03  8.04380E-10  3.19915E-15  1.14244E+02  1.52360E-07  1.0E-07
  3.500E-03  9.32891E-10  3.19915E-15  1.14244E+02  1.64080E-07  1.0E-07
  3.750E-03  1.07092E-09  3.19915E-15  1.14244E+02  1.75800E-07  1.0E-07
  4.000E-03  1.21847E-09  3.19915E-15  1.14244E+02  1.87521E-07  1.0E-07
  4.250E-03  1.37554E-09  3.19915E-15  1.14244E+02  1.99241E-07  1.0E-07
  4.500E-03  1.54213E-09  3.19915E-15  1.14244E+02  2.10961E-07  1.0E-07
  4.750E-03  1.71823E-09  3.19915E-15  1.14244E+02  2.22681E-07  1.0E-07
  5.000E-03  1.90386E-09  3.19915E-15  1.14244E+02  2.34401E-07  1.0E-07
  5.250E-03  2.09900E-09  3.19914E-15  1.14244E+02  2.46121E-07  1.0E-07
  5.500E-03  2.30367E-09  3.19914E-15  1.14244E+02  2.57841E-07  1.0E-07
  5.750E-03  2.51785E-09  3.19914E-15  1.14244E+02  2.69561E-07  1.0E-07
  6.000E-03  2.74156E-09  3.19914E-15  1.14243E+02  2.81281E-07  1.0E-07
  6.250E-03  2.97478E-09  3.19914E-15  1.14243E+02  2.93001E-07  1.0E-07
  6.500E-03  3.21752E-09  3.19914E-15  1.14243E+02  3.04721E-07  1.0E-07
  6.750E-03  3.46978E-09  3.19914E-15  1.14243E+02  3.16441E-07  1.0E-07
  7.000E-03  3.73156E-09  3.19914E-15  1.14243E+02  3.28161E-07  1.0E-07
  7.250E-03  4.00286E-09  3.19914E-15  1.14243E+02  3.39881E-07  1.0E-07
  7.500E-03  4.28368E-09  3.19914E-15  1.14243E+02  3.51601E-07  1.0E-07
  7.750E-03  4.57402E-09  3.19914E-15  1.14243E+02  3.63321E-07  1.0E-07
  8.000E-03  4.87388E-09  3.19914E-15  1.14243E+02  3.75042E-07  1.0E-07
  8.250E-03  5.18326E-09  3.19914E-15  1.14243E+02  3.86762E-07  1.0E-07
  8.500E-03  5.50215E-09  3.19914E-15  1.14243E+02  3.98482E-07  1.0E-07
  8.750E-03  5.83057E-09  3.19914E-15  1.14243E+02  4.10202E-07  1.0E-07
  9.000E-03  6.16850E-09  3.19914E-15  1.14243E+02  4.21922E-07  1.0E-07
  9.250E-03  6.51596E-09  3.19914E-15  1.14243E+02  4.33642E-07  1.0E-07
  9.500E-03  6.87293E-09  3.19914E-15  1.14243E+02  4.45362E-07  1.0E-07
  9.750E-03  7.23942E-09  3.19914E-15  1.14243E+02  4.57082E-07  1.0E-07
  1.000E-02  7.61544E-09  3.19913E-15  1.14243E+02  4.68802E-07  1.0E-07
  1.250E-02  1.18991E-08  3.19913E-15  1.14243E+02  5.86004E-07  1.0E-07
  1.500E-02  1.71347E-08  3.19912E-15  1.14243E+02  7.03206E-07  1.0E-07
  1.750E-02  2.33223E-08  3.19911E-15  1.14242E+02  8.20409E-07  1.0E-07
  2.000E-02  3.04617E-08  3.19909E-15  1.14242E+02  9.37613E-07  1.0E-07
  2.250E-02  3.85531E-08  3.19908E-15  1.14241E+02  1.05482E-06  1.0E-07
  2.500E-02  4.75965E-08  3.19906E-15  1.14241E+02  1.17202E-06  1.0E-07
  2.750E-02  5.75917E-08  3.19904E-15  1.14240E+02  1.28923E-06  1.0E-07
  3.000E-02  6.85389E-08  3.19903E-15  1.14239E+02  1.40644E-06  1.0E-07
  3.250E-02  8.04380E-08  3.19900E-15  1.14238E+02  1.52365E-06  1.0E-07
  3.500E-02  9.32891E-08  3.19898E-15  1.14238E+02  1.64086E-06  1.0E-07
  3.750E-02  1.07092E-07  3.19896E-15  1.14237E+02  1.75807E-06  1.0E-07
  4.000E-02  1.21847E-07  3.19893E-15  1.14236E+02  1.87529E-06  1.0E-07
  4.250E-02  1.37554E-07  3.19890E-15  1.14235E+02  1.99251E-06  1.0E-07
  4.500E-02  1.54213E-07  3.19887E-15  1.14234E+02  2.10972E-06  1.0E-07
  4.750E-02  1.71823E-07  3.19884E-15  1.14233E+02  2.22695E-06  1.0E-07
  5.000E-02  1.90386E-07  3.19881E-15  1.14231E+02  2.34417E-06  1.0E-07
  5.250E-02  2.09900E-07  3.19877E-15  1.14230E+02  2.46140E-06  1.0E-07
  5.500E-02  2.30367E-07  3.19873E-15  1.14229E+02  2.57862E-06  1.0E-07
  5.750E-02  2.51785E-07  3.19870E-15  1.14227E+02  2.69586E-06  1.0E-07
  6.000E-02  2.74156E-07  3.19866E-15  1.14226E+02  2.81309E-06  1.0E-07
  6.250E-02  2.97478E-07  3.19861E-15  1.14225E+02  2.93033E-06  1.0E-07
  6.500E-02  3.21752E-07  3.19857E-15  1.14223E+02  3.04757E-06  1.0E-07
  6.750E-02  3.46978E-07  3.19852E-15  1.14221E+02  3.16481E-06  1.0E-07
  7.000E-02  3.73156E-07  3.19848E-15  1.14220E+02  3.28206E-06  1.0E-07
  7.250E-02  4.00286E-07  3.19843E-15  1.14218E+02  3.39931E-06  1.0E-07
  7.500E-02  4.28368E-07  3.19838E-15  1.14216E+02  3.51656E-06  1.0E-07
  7.750E-02  4.57402E-07  3.19833E-15  1.14214E+02  3.63382E-06  1.0E-07
  8.000E-02  4.87388E-07  3.19827E-15  1.14212E+02  3.75108E-06  1.0E-07
  8.250E-02  5.18325E-07  3.19822E-15  1.14210E+02  3.86835E-06  1.0E-07
  8.500E-02  5.50215E-07  3.19816E-15  1.14208E+02  3.98562E-06  1.0E-07
  8.750E-02  5.83057E-07  3.19810E-15  1.14206E+02  4.10289E-06  1.0E-07
  9.000E-02  6.16850E-07  3.19804E-15  1.14204E+02  4.22017E-06  1.0E-07
  9.250E-02  6.51596E-07  3.19798E-15  1.14202E+02  4.33745E-06  1.0E-07
  9.500E-02  6.87293E-07  3.19791E-15  1.14199E+02  4.45474E-06  1.0E-07
  9.750E-02  7.23942E-07  3.19785E-15  1.14197E+02  4.57203E-06  1.0E-07
  1.000E-01  7.61543E-07  3.19778E-15  1.14195E+02  4.68932E-06  1.0E-07
  1.250E-01  1.18991E-06  3.19701E-15  1.14167E+02  5.86258E-06  1.0E-07
  1.500E-01  1.71347E-06  3.19607E-15  1.14134E+02  7.03645E-06  1.0E-07
  1.750E-01  2.33223E-06  3.19495E-15  1.14094E+02  8.21105E-06  1.0E-07
  2.000E-01  3.04617E-06  3.19367E-15  1.14048E+02  9.38652E-06  1.0E-07
  2.250E-01  3.85531E-06  3.19222E-15  1.13996E+02  1.05630E-05  1.0E-07
  2.500E-01  4.75964E-06  3.19060E-15  1.13938E+02  1.17405E-05  1.0E-07
  2.750E-01  5.75916E-06  3.18880E-15  1.13874E+02  1.29193E-05  1.0E-07
  3.000E-01  6.85388E-06  3.18684E-15  1.13804E+02  1.40995E-05  1.0E-07
  3.250E-01  8.04378E-06  3.18471E-15  1.13728E+02  1.52811E-05  1.0E-07
  3.500E-01  9.32888E-06  3.18242E-15  1.13646E+02  1.64643E-05  1.0E-07
  3.750E-01  1.07092E-05  3.17995E-15  1.13558E+02  1.76493E-05  1.0E-07
  4.000E-01  1.21846E-05  3.17732E-15  1.13464E+02  1.88361E-05  1.0E-07
  4.250E-01  1.37553E-05  3.17452E-15  1.13364E+02  2.00249E-05  1.0E-07
  4.500E-01  1.54212E-05  3.17156E-15  1.13258E+02  2.12158E-05  1.0E-07
  4.750E-01  1.71822E-05  3.16843E-15  1.13147E+02  2.24089E-05  1.0E-07
  5.000E-01  1.90385E-05  3.16513E-15  1.13029E+02  2.36043E-05  1.0E-07
  5.250E-01  2.09899E-05  3.16168E-15  1.12906E+02  2.48022E-05  1.0E-07
  5.500E-01  2.30365E-05  3.15806E-15  1.12776E+02  2.60027E-05  1.0E-07
  5.750E-01  2.51783E-05  3.15427E-15  1.12641E+02  2.72059E-05  1.0E-07
  6.000E-01  2.74153E-05  3.15033E-15  1.12500E+02  2.84120E-05  1.0E-07
  6.250E-01  2.97475E-05  3.14623E-15  1.12354E+02  2.96210E-05  1.0E-07
  6.500E-01  3.21749E-05  3.14197E-15  1.12202E+02  3.08331E-05  1.0E-07
  6.750E-01  3.46974E-05  3.13755E-15  1.12044E+02  3.20485E-05  1.0E-07
  7.000E-01  3.73152E-05  3.13297E-15  1.11880E+02  3.32672E-05  1.0E-07
  7.250E-01  4.00281E-05  3.12823E-15  1.11711E+02  3.44893E-05  1.0E-07
  7.500E-01  4.28362E-05  3.12334E-15  1.11537E+02  3.57150E-05  1.0E-07
  7.750E-01  4.57395E-05  3.11830E-15  1.11357E+02  3.69445E-05  1.0E-07
  8.000E-01  4.87380E-05  3.11310E-15  1.11171E+02  3.81778E-05  1.0E-07
  8.250E-01  5.18317E-05  3.10775E-15  1.10980E+02  3.94151E-05  1.0E-07
  8.500E-01  5.50205E-05  3.10225E-15  1.10784E+02  4.06564E-05  1.0E-07
  8.750E-01  5.83045E-05  3.09661E-15  1.10582E+02  4.19020E-05  1.0E-07
  9.000E-01  6.16838E-05  3.09081E-15  1.10375E+02  4.31519E-05  1.0E-07
  9.250E-01  6.51582E-05  3.08486E-15  1.10162E+02  4.44063E-05  1.0E-07
  9.500E-01  6.87277E-05  3.07877E-15  1.09945E+02  4.56653E-05  1.0E-07
  9.750E-01  7.23925E-05  3.07254E-15  1.09722E+02  4.69291E-05  1.0E-07
  1.000E+00  7.61524E-05  3.06616E-15  1.09495E+02  4.81977E-05  1.0E-07
  1.100E+00  9.21439E-05  3.03925E-15  1.08534E+02  5.33231E-05  1.0E-07
  1.200E+00  1.09658E-04  3.01017E-15  1.07495E+02  5.85365E-05  1.0E-07
  1.300E+00  1.28695E-04  2.97901E-15  1.06382E+02  6.38460E-05  1.0E-07
  1.400E+00  1.49255E-04  2.94587E-15  1.05199E+02  6.92599E-05  1.0E-07
  1.500E+00  1.71338E-04  2.91087E-15  1.03949E+02  7.47867E-05  1.0E-07
  1.600E+00  1.94942E-04  2.87412E-15  1.02637E+02  8.04347E-05  1.0E-07
  1.700E+00  2.20070E-04  2.83573E-15  1.01266E+02  8.62125E-05  1.0E-07
  1.800E+00  2.46720E-04  2.79582E-15  9.98406E+01  9.21286E-05  1.0E-07
  1.900E+00  2.74892E-04  2.75450E-15  9.83651E+01  9.81917E-05  1.0E-07
  2.000E+00  3.04586E-04  2.71190E-15  9.68438E+01  1.04410E-04  1.0E-07
  2.100E+00  3.35803E-04  2.66814E-15  9.52809E+01  1.10794E-04  1.0E-07
  2.200E+00  3.68542E-04  2.62332E-15  9.36806E+01  1.17350E-04  1.0E-07
  2.300E+00  4.02802E-04  2.57758E-15  9.20472E+01  1.24089E-04  1.0E-07
  2.400E+00  4.38585E-04  2.53103E-15  9.03849E+01  1.31020E-04  1.0E-07
  2.500E+00  4.75889E-04  2.48379E-15  8.86977E+01  1.38150E-04  1.0E-07
  2.600E+00  5.14715E-04  2.43596E-15  8.69896E+01  1.45491E-04  1.0E-07
  2.700E+00  5.55063E-04  2.38765E-15  8.52646E+01  1.53050E-04  1.0E-07
  2.800E+00  5.96931E-04  2.33898E-15  8.35264E+01  1.60837E-04  1.0E-07
  2.900E+00  6.40321E-04  2.29004E-15  8.17787E+01  1.68862E-04  1.0E-07
  3.000E+00  6.85233E-04  2.24093E-15  8.00250E+01  1.77133E-04  1.0E-07
  3.100E+00  7.31665E-04  2.19174E-15  7.82686E+01  1.85661E-04  1.0E-07
  3.200E+00  7.79618E-04  2.14258E-15  7.65128E+01  1.94454E-04  1.0E-07
  3.300E+00  8.29092E-04  2.09351E-15  7.47606E+01  2.03522E-04  1.0E-07
  3.400E+00  8.80086E-04  2.04462E-15  7.30148E+01  2.12875E-04  1.0E-07
  3.500E+00  9.32601E-04  1.99599E-15  7.12782E+01  2.22522E-04  1.0E-07
  3.600E+00  9.86636E-04  1.94769E-15  6.95532E+01  2.32473E-04  1.0E-07
  3.700E+00  1.04219E-03  1.89978E-15  6.78423E+01  2.42737E-04  1.0E-07
  3.800E+00  1.09927E-03  1.85232E-15  6.61475E+01  2.53323E-04  1.0E-07
  3.900E+00  1.15786E-03  1.80537E-15  6.44710E+01  2.64241E-04  1.0E-07
  4.000E+00  1.21797E-03  1.75899E-15  6.28146E+01  2.75501E-04  1.0E-07
  4.100E+00  1.27961E-03  1.71321E-15  6.11799E+01  2.87111E-04  1.0E-07
  4.200E+00  1.34276E-03  1.66808E-15  5.95684E+01  2.99081E-04  1.0E-07
  4.300E+00  1.40743E-03  1.62365E-15  5.79815E+01  3.11420E-04  1.0E-07
  4.400E+00  1.47362E-03  1.57994E-15  5.64205E+01  3.24137E-04  1.0E-07
  4.500E+00  1.54133E-03  1.53697E-15  5.48864E+01  3.37241E-04  1.0E-07
  4.600E+00  1.61056E-03  1.49479E-15  5.33801E+01  3.50740E-04  1.0E-07
  4.700E+00  1.68131E-03  1.45341E-15  5.19024E+01  3.64643E-04  1.0E-07
  4.800E+00  1.75357E-03  1.41286E-15  5.04540E+01  3.78958E-04  1.0E-07
  4.900E+00  1.82735E-03  1.37313E-15  4.90354E+01  3.93694E-04  1.0E-07
  5.000E+00  1.90265E-03  1.33426E-15  4.76472E+01  4.08858E-04  1.0E-07
  5.100E+00  1.97947E-03  1.29624E-15  4.62896E+01  4.24457E-04  1.0E-07
  5.200E+00  2.05780E-03  1.25909E-15  4.49628E+01  4.40500E-04  1.0E-07
  5.300E+00  2.13765E-03  1.22280E-15  4.36671E+01  4.56993E-04  1.0E-07
  5.400E+00  2.21902E-03  1.18739E-15  4.24024E+01  4.73942E-04  1.0E-07
  5.500E+00  2.30190E-03  1.15285E-15  4.11689E+01  4.91355E-04  1.0E-07
  5.600E+00  2.38630E-03  1.11917E-15  3.99663E+01  5.09237E-04  1.0E-07
  5.700E+00  2.47222E-03  1.08636E-15  3.87945E+01  5.27593E-04  1.0E-07
  5.800E+00  2.55965E-03  1.05440E-15  3.76534E+01  5.46429E-04  1.0E-07
  5.900E+00  2.64859E-03  1.02330E-15  3.65426E+01  5.65750E-04  1.0E-07
  6.000E+00  2.73905E-03  9.93032E-16  3.54618E+01  5.85559E-04  1.0E-07
  6.100E+00  2.83103E-03  9.63599E-16  3.44108E+01  6.05861E-04  1.0E-07
  6.200E+00  2.92452E-03  9.34986E-16  3.33889E+01  6.26658E-04  1.0E-07
  6.300E+00  3.01952E-03  9.07180E-16  3.23960E+01  6.47953E-04  1.0E-07
  6.400E+00  3.11604E-03  8.80168E-16  3.14314E+01  6.69748E-04  1.0E-07
  6.500E+00  3.21407E-03  8.53937E-16  3.04947E+01  6.92045E-04  1.0E-07
  6.600E+00  3.31362E-03  8.28472E-16  2.95853E+01  7.14844E-04  1.0E-07
  6.700E+00  3.41468E-03  8.03759E-16  2.87027E+01  7.38146E-04  1.0E-07
  6.800E+00  3.51725E-03  7.79781E-16  2.78465E+01  7.61949E-04  1.0E-07
  6.900E+00  3.62133E-03  7.56523E-16  2.70159E+01  7.86254E-04  1.0E-07
  7.000E+00  3.72692E-03  7.33968E-16  2.62105E+01  8.11057E-04  1.0E-07
  7.100E+00  3.83403E-03  7.12101E-16  2.54296E+01  8.36357E-04  1.0E-07
  7.200E+00  3.94265E-03  6.90905E-16  2.46727E+01  8.62149E-04  1.0E-07
  7.300E+00  4.05278E-03  6.70363E-16  2.39391E+01  8.88430E-04  1.0E-07
  7.400E+00  4.16442E-03  6.50459E-16  2.32283E+01  9.15194E-04  1.0E-07
  7.500E+00  4.27757E-03  6.31176E-16  2.25397E+01  9.42436E-04  1.0E-07
  7.600E+00  4.39223E-03  6.12497E-16  2.18727E+01  9.70149E-04  1.0E-07
  7.700E+00  4.50840E-03  5.94407E-16  2.12266E+01  9.98325E-04  1.0E-07
  7.800E+00  4.62608E-03  5.76888E-16  2.06010E+01  1.02696E-03  1.0E-07
  7.900E+00  4.74527E-03  5.59925E-16  1.99953E+01  1.05603E-03  1.0E-07
  8.000E+00  4.86597E-03  5.43501E-16  1.94088E+01  1.08554E-03  1.0E-07
  8.100E+00  4.98817E-03  5.27601E-16  1.88410E+01  1.11548E-03  1.0E-07
  8.200E+00  5.11188E-03  5.12210E-16  1.82913E+01  1.14582E-03  1.0E-07
  8.300E+00  5.23711E-03  4.97312E-16  1.77593E+01  1.17656E-03  1.0E-07
  8.400E+00  5.36383E-03  4.82892E-16  1.72444E+01  1.20769E-03  1.0E-07
  8.500E+00  5.49207E-03  4.68936E-16  1.67460E+01  1.23919E-03  1.0E-07
  8.600E+00  5.62181E-03  4.55428E-16  1.62636E+01  1.27103E-03  1.0E-07
  8.700E+00  5.75306E-03  4.42356E-16  1.57968E+01  1.30322E-03  1.0E-07
  8.800E+00  5.88581E-03  4.29706E-16  1.53451E+01  1.33571E-03  1.0E-07
  8.900E+00  6.02007E-03  4.17463E-16  1.49079E+01  1.36851E-03  1.0E-07
  9.000E+00  6.15583E-03  4.05616E-16  1.44848E+01  1.40158E-03  1.0E-07
  9.100E+00  6.29310E-03  3.94151E-16  1.40754E+01  1.43491E-03  1.0E-07
  9.200E+00  6.43187E-03  3.83055E-16  1.36791E+01  1.46847E-03  1.0E-07
  9.300E+00  6.57214E-03  3.72318E-16  1.32957E+01  1.50224E-03  1.0E-07
  9.400E+00  6.71392E-03  3.61926E-16  1.29246E+01  1.53620E-03  1.0E-07
  9.500E+00  6.85720E-03  3.51869E-16  1.25655E+01  1.57031E-03  1.0E-07
  9.600E+00  7.00198E-03  3.42136E-16  1.22179E+01  1.60455E-03  1.0E-07
  9.700E+00  7.14827E-03  3.32715E-16  1.18815E+01  1.63890E-03  1.0E-07
  9.800E+00  7.29605E-03  3.23597E-16  1.15559E+01  1.67332E-03  1.0E-07
  9.900E+00  7.44534E-03  3.14771E-16  1.12407E+01  1.70779E-03  1.0E-07
  1.000E+01  7.59612E-03  3.06227E-16  1.09356E+01  1.74226E-03  1.0E-07
  1.025E+01  7.97965E-03  2.86043E-16  1.02148E+01  1.82831E-03  1.0E-07
  1.050E+01  8.37255E-03  2.67426E-16  9.54994E+00  1.91369E-03  1.0E-07
  1.075E+01  8.77480E-03  2.50246E-16  8.93643E+00  1.99785E-03  1.0E-07
  1.100E+01  9.18641E-03  2.34384E-16  8.37002E+00  2.08017E-03  1.0E-07
  1.125E+01  9.60736E-03  2.19733E-16  7.84680E+00  2.16000E-03  1.0E-07
  1.150E+01  1.00376E-02  2.06191E-16  7.36322E+00  2.23667E-03  1.0E-07
  1.175E+01  1.04773E-02  1.93668E-16  6.91600E+00  2.30945E-03  1.0E-07
  1.200E+01  1.09262E-02  1.82078E-16  6.50214E+00  2.37760E-03  1.0E-07
  1.225E+01  1.13844E-02  1.71347E-16  6.11891E+00  2.44035E-03  1.0E-07
  1.250E+01  1.18520E-02  1.61403E-16  5.76381E+00  2.49690E-03  1.0E-07
  1.275E+01  1.23288E-02  1.52183E-16  5.43454E+00  2.54646E-03  1.0E-07
  1.300E+01  1.28150E-02  1.43627E-16  5.12901E+00  2.58818E-03  1.0E-07
  1.325E+01  1.33104E-02  1.35683E-16  4.84532E+00  2.62124E-03  1.0E-07
  1.350E+01  1.38150E-02  1.28301E-16  4.58170E+00  2.64479E-03  1.0E-07
  1.375E+01  1.43290E-02  1.21436E-16  4.33656E+00  2.65801E-03  1.0E-07
  1.400E+01  1.48521E-02  1.15048E-16  4.10844E+00  2.66005E-03  1.0E-07
  1.425E+01  1.53845E-02  1.09099E-16  3.89599E+00  2.65010E-03  1.0E-07
  1.450E+01  1.59262E-02  1.03555E-16  3.69800E+00  2.62736E-03  1.0E-07
  1.475E+01  1.64770E-02  9.83834E-17  3.51334E+00  2.59104E-03  1.0E-07
  1.500E+01  1.70371E-02  9.35567E-17  3.34097E+00  2.54039E-03  1.0E-07
