 #
 # Subroutine ELSEPA. Elastic scattering of electrons and positrons
 #                    by neutral atoms and positive ions
 #
 # Projectile: electron
 # Kinetic energy = 4.00000E+03 eV = 1.46997E+02 a.u.
 #
 # Element: Hg,  Z =  80,  atomic weight = 2.00590E+02 g/mol
 #
 # Nuclear model: Fermi distribution
 #                Average radius = 6.26355E-13 cm
 #                Skin thickness = 5.46000E-14 cm
 #
 # Number of electrons = 80
 #
 # Electron density: analytical DHFS model
 #                   A1 =  2.09753D-01 ,   ALPHA1 = 2.44080D+01
 #                   A2 =  6.00426D-01 ,   ALPHA2 = 3.96429D+00
 #                   A3 =  1.89821D-01 ,   ALPHA3 = 1.53432D+00
 #                   Volume integral = 8.00000E+01
 #
 # Furness-McCarthy exchange potential
 #
 # Total elastic cross section = 1.23718E-16 cm**2 = 4.41807E+00 a0**2
 # 1st transport cross section = 1.57267E-17 cm**2 = 5.61609E-01 a0**2
 # 2nd transport cross section = 1.90516E-17 cm**2 = 6.80346E-01 a0**2
 #
 #
 # Differential cross section:                       MU=(1-COS(THETA))/2
 #
 #  THETA        MU          DCS          DCS        Sherman      error
 #  (deg)                 (cm**2/sr)   (a0**2/sr)    function
 #----------------------------------------------------------------------
  0.000E+00  0.00000E+00  4.06979E-15  1.45335E+02  0.00000E+00  1.0E-07
  1.000E-04  7.61557E-13  4.06979E-15  1.45335E+02  7.77027E-10  1.0E-07
  1.250E-04  1.18994E-12  4.06979E-15  1.45335E+02  9.71284E-10  1.0E-07
  1.500E-04  1.71346E-12  4.06979E-15  1.45335E+02  1.16554E-09  1.0E-07
  1.750E-04  2.33225E-12  4.06979E-15  1.45335E+02  1.35980E-09  1.0E-07
  2.000E-04  3.04617E-12  4.06979E-15  1.45335E+02  1.55405E-09  1.0E-07
  2.250E-04  3.85530E-12  4.06979E-15  1.45335E+02  1.74831E-09  1.0E-07
  2.500E-04  4.75964E-12  4.06979E-15  1.45335E+02  1.94257E-09  1.0E-07
  2.750E-04  5.75917E-12  4.06979E-15  1.45335E+02  2.13682E-09  1.0E-07
  3.000E-04  6.85391E-12  4.06979E-15  1.45335E+02  2.33108E-09  1.0E-07
  3.250E-04  8.04379E-12  4.06979E-15  1.45335E+02  2.52534E-09  1.0E-07
  3.500E-04  9.32893E-12  4.06979E-15  1.45335E+02  2.71960E-09  1.0E-07
  3.750E-04  1.07092E-11  4.06979E-15  1.45335E+02  2.91385E-09  1.0E-07
  4.000E-04  1.21847E-11  4.06979E-15  1.45335E+02  3.10811E-09  1.0E-07
  4.250E-04  1.37554E-11  4.06979E-15  1.45335E+02  3.30237E-09  1.0E-07
  4.500E-04  1.54213E-11  4.06979E-15  1.45335E+02  3.49662E-09  1.0E-07
  4.750E-04  1.71823E-11  4.06979E-15  1.45335E+02  3.69088E-09  1.0E-07
  5.000E-04  1.90386E-11  4.06979E-15  1.45335E+02  3.88514E-09  1.0E-07
  5.250E-04  2.09900E-11  4.06979E-15  1.45335E+02  4.07939E-09  1.0E-07
  5.500E-04  2.30367E-11  4.06979E-15  1.45335E+02  4.27365E-09  1.0E-07
  5.750E-04  2.51785E-11  4.06979E-15  1.45335E+02  4.46791E-09  1.0E-07
  6.000E-04  2.74156E-11  4.06979E-15  1.45335E+02  4.66216E-09  1.0E-07
  6.250E-04  2.97478E-11  4.06979E-15  1.45335E+02  4.85642E-09  1.0E-07
  6.500E-04  3.21752E-11  4.06979E-15  1.45335E+02  5.05068E-09  1.0E-07
  6.750E-04  3.46979E-11  4.06979E-15  1.45335E+02  5.24493E-09  1.0E-07
  7.000E-04  3.73157E-11  4.06979E-15  1.45335E+02  5.43919E-09  1.0E-07
  7.250E-04  4.00286E-11  4.06979E-15  1.45335E+02  5.63345E-09  1.0E-07
  7.500E-04  4.28368E-11  4.06979E-15  1.45335E+02  5.82770E-09  1.0E-07
  7.750E-04  4.57402E-11  4.06979E-15  1.45335E+02  6.02196E-09  1.0E-07
  8.000E-04  4.87388E-11  4.06979E-15  1.45335E+02  6.21622E-09  1.0E-07
  8.250E-04  5.18325E-11  4.06979E-15  1.45335E+02  6.41047E-09  1.0E-07
  8.500E-04  5.50215E-11  4.06979E-15  1.45335E+02  6.60473E-09  1.0E-07
  8.750E-04  5.83057E-11  4.06979E-15  1.45335E+02  6.79899E-09  1.0E-07
  9.000E-04  6.16850E-11  4.06979E-15  1.45335E+02  6.99325E-09  1.0E-07
  9.250E-04  6.51595E-11  4.06979E-15  1.45335E+02  7.18750E-09  1.0E-07
  9.500E-04  6.87293E-11  4.06979E-15  1.45335E+02  7.38176E-09  1.0E-07
  9.750E-04  7.23943E-11  4.06979E-15  1.45335E+02  7.57602E-09  1.0E-07
  1.000E-03  7.61544E-11  4.06979E-15  1.45335E+02  7.77027E-09  1.0E-07
  1.250E-03  1.18991E-10  4.06979E-15  1.45335E+02  9.71284E-09  1.0E-07
  1.500E-03  1.71347E-10  4.06979E-15  1.45335E+02  1.16554E-08  1.0E-07
  1.750E-03  2.33223E-10  4.06979E-15  1.45335E+02  1.35980E-08  1.0E-07
  2.000E-03  3.04617E-10  4.06979E-15  1.45335E+02  1.55405E-08  1.0E-07
  2.250E-03  3.85531E-10  4.06979E-15  1.45335E+02  1.74831E-08  1.0E-07
  2.500E-03  4.75965E-10  4.06979E-15  1.45335E+02  1.94257E-08  1.0E-07
  2.750E-03  5.75917E-10  4.06979E-15  1.45335E+02  2.13682E-08  1.0E-07
  3.000E-03  6.85389E-10  4.06979E-15  1.45335E+02  2.33108E-08  1.0E-07
  3.250E-03  8.04380E-10  4.06979E-15  1.45335E+02  2.52534E-08  1.0E-07
  3.500E-03  9.32891E-10  4.06979E-15  1.45335E+02  2.71959E-08  1.0E-07
  3.750E-03  1.07092E-09  4.06979E-15  1.45335E+02  2.91385E-08  1.0E-07
  4.000E-03  1.21847E-09  4.06978E-15  1.45335E+02  3.10811E-08  1.0E-07
  4.250E-03  1.37554E-09  4.06978E-15  1.45335E+02  3.30236E-08  1.0E-07
  4.500E-03  1.54213E-09  4.06978E-15  1.45335E+02  3.49662E-08  1.0E-07
  4.750E-03  1.71823E-09  4.06978E-15  1.45335E+02  3.69088E-08  1.0E-07
  5.000E-03  1.90386E-09  4.06978E-15  1.45335E+02  3.88513E-08  1.0E-07
  5.250E-03  2.09900E-09  4.06978E-15  1.45335E+02  4.07939E-08  1.0E-07
  5.500E-03  2.30367E-09  4.06978E-15  1.45334E+02  4.27365E-08  1.0E-07
  5.750E-03  2.51785E-09  4.06978E-15  1.45334E+02  4.46790E-08  1.0E-07
  6.000E-03  2.74156E-09  4.06978E-15  1.45334E+02  4.66216E-08  1.0E-07
  6.250E-03  2.97478E-09  4.06978E-15  1.45334E+02  4.85641E-08  1.0E-07
  6.500E-03  3.21752E-09  4.06978E-15  1.45334E+02  5.05067E-08  1.0E-07
  6.750E-03  3.46978E-09  4.06978E-15  1.45334E+02  5.24493E-08  1.0E-07
  7.000E-03  3.73156E-09  4.06977E-15  1.45334E+02  5.43918E-08  1.0E-07
  7.250E-03  4.00286E-09  4.06977E-15  1.45334E+02  5.63344E-08  1.0E-07
  7.500E-03  4.28368E-09  4.06977E-15  1.45334E+02  5.82769E-08  1.0E-07
  7.750E-03  4.57402E-09  4.06977E-15  1.45334E+02  6.02195E-08  1.0E-07
  8.000E-03  4.87388E-09  4.06977E-15  1.45334E+02  6.21621E-08  1.0E-07
  8.250E-03  5.18326E-09  4.06977E-15  1.45334E+02  6.41046E-08  1.0E-07
  8.500E-03  5.50215E-09  4.06977E-15  1.45334E+02  6.60472E-08  1.0E-07
  8.750E-03  5.83057E-09  4.06977E-15  1.45334E+02  6.79897E-08  1.0E-07
  9.000E-03  6.16850E-09  4.06976E-15  1.45334E+02  6.99323E-08  1.0E-07
  9.250E-03  6.51596E-09  4.06976E-15  1.45334E+02  7.18748E-08  1.0E-07
  9.500E-03  6.87293E-09  4.06976E-15  1.45334E+02  7.38174E-08  1.0E-07
  9.750E-03  7.23942E-09  4.06976E-15  1.45334E+02  7.57599E-08  1.0E-07
  1.000E-02  7.61544E-09  4.06976E-15  1.45334E+02  7.77025E-08  1.0E-07
  1.250E-02  1.18991E-08  4.06974E-15  1.45333E+02  9.71279E-08  1.0E-07
  1.500E-02  1.71347E-08  4.06972E-15  1.45332E+02  1.16553E-07  1.0E-07
  1.750E-02  2.33223E-08  4.06969E-15  1.45331E+02  1.35979E-07  1.0E-07
  2.000E-02  3.04617E-08  4.06966E-15  1.45330E+02  1.55404E-07  1.0E-07
  2.250E-02  3.85531E-08  4.06963E-15  1.45329E+02  1.74828E-07  1.0E-07
  2.500E-02  4.75965E-08  4.06959E-15  1.45328E+02  1.94253E-07  1.0E-07
  2.750E-02  5.75917E-08  4.06955E-15  1.45326E+02  2.13678E-07  1.0E-07
  3.000E-02  6.85389E-08  4.06950E-15  1.45325E+02  2.33102E-07  1.0E-07
  3.250E-02  8.04380E-08  4.06945E-15  1.45323E+02  2.52526E-07  1.0E-07
  3.500E-02  9.32891E-08  4.06940E-15  1.45321E+02  2.71949E-07  1.0E-07
  3.750E-02  1.07092E-07  4.06934E-15  1.45319E+02  2.91373E-07  1.0E-07
  4.000E-02  1.21847E-07  4.06928E-15  1.45317E+02  3.10796E-07  1.0E-07
  4.250E-02  1.37554E-07  4.06921E-15  1.45314E+02  3.30218E-07  1.0E-07
  4.500E-02  1.54213E-07  4.06914E-15  1.45312E+02  3.49641E-07  1.0E-07
  4.750E-02  1.71823E-07  4.06907E-15  1.45309E+02  3.69063E-07  1.0E-07
  5.000E-02  1.90386E-07  4.06899E-15  1.45306E+02  3.88484E-07  1.0E-07
  5.250E-02  2.09900E-07  4.06891E-15  1.45303E+02  4.07905E-07  1.0E-07
  5.500E-02  2.30367E-07  4.06882E-15  1.45300E+02  4.27326E-07  1.0E-07
  5.750E-02  2.51785E-07  4.06873E-15  1.45297E+02  4.46746E-07  1.0E-07
  6.000E-02  2.74156E-07  4.06864E-15  1.45294E+02  4.66165E-07  1.0E-07
  6.250E-02  2.97478E-07  4.06854E-15  1.45290E+02  4.85584E-07  1.0E-07
  6.500E-02  3.21752E-07  4.06844E-15  1.45287E+02  5.05003E-07  1.0E-07
  6.750E-02  3.46978E-07  4.06833E-15  1.45283E+02  5.24421E-07  1.0E-07
  7.000E-02  3.73156E-07  4.06823E-15  1.45279E+02  5.43838E-07  1.0E-07
  7.250E-02  4.00286E-07  4.06811E-15  1.45275E+02  5.63254E-07  1.0E-07
  7.500E-02  4.28368E-07  4.06799E-15  1.45271E+02  5.82670E-07  1.0E-07
  7.750E-02  4.57402E-07  4.06787E-15  1.45266E+02  6.02086E-07  1.0E-07
  8.000E-02  4.87388E-07  4.06775E-15  1.45262E+02  6.21500E-07  1.0E-07
  8.250E-02  5.18325E-07  4.06762E-15  1.45257E+02  6.40914E-07  1.0E-07
  8.500E-02  5.50215E-07  4.06748E-15  1.45252E+02  6.60328E-07  1.0E-07
  8.750E-02  5.83057E-07  4.06735E-15  1.45248E+02  6.79740E-07  1.0E-07
  9.000E-02  6.16850E-07  4.06720E-15  1.45242E+02  6.99152E-07  1.0E-07
  9.250E-02  6.51596E-07  4.06706E-15  1.45237E+02  7.18563E-07  1.0E-07
  9.500E-02  6.87293E-07  4.06691E-15  1.45232E+02  7.37973E-07  1.0E-07
  9.750E-02  7.23942E-07  4.06676E-15  1.45226E+02  7.57382E-07  1.0E-07
  1.000E-01  7.61543E-07  4.06660E-15  1.45221E+02  7.76790E-07  1.0E-07
  1.250E-01  1.18991E-06  4.06480E-15  1.45157E+02  9.70821E-07  1.0E-07
  1.500E-01  1.71347E-06  4.06261E-15  1.45079E+02  1.16474E-06  1.0E-07
  1.750E-01  2.33223E-06  4.06003E-15  1.44986E+02  1.35853E-06  1.0E-07
  2.000E-01  3.04617E-06  4.05704E-15  1.44880E+02  1.55215E-06  1.0E-07
  2.250E-01  3.85531E-06  4.05367E-15  1.44759E+02  1.74560E-06  1.0E-07
  2.500E-01  4.75964E-06  4.04990E-15  1.44625E+02  1.93885E-06  1.0E-07
  2.750E-01  5.75916E-06  4.04574E-15  1.44476E+02  2.13187E-06  1.0E-07
  3.000E-01  6.85388E-06  4.04120E-15  1.44314E+02  2.32464E-06  1.0E-07
  3.250E-01  8.04378E-06  4.03626E-15  1.44138E+02  2.51714E-06  1.0E-07
  3.500E-01  9.32888E-06  4.03094E-15  1.43948E+02  2.70934E-06  1.0E-07
  3.750E-01  1.07092E-05  4.02524E-15  1.43744E+02  2.90122E-06  1.0E-07
  4.000E-01  1.21846E-05  4.01916E-15  1.43527E+02  3.09275E-06  1.0E-07
  4.250E-01  1.37553E-05  4.01271E-15  1.43296E+02  3.28391E-06  1.0E-07
  4.500E-01  1.54212E-05  4.00588E-15  1.43052E+02  3.47468E-06  1.0E-07
  4.750E-01  1.71822E-05  3.99867E-15  1.42795E+02  3.66503E-06  1.0E-07
  5.000E-01  1.90385E-05  3.99110E-15  1.42525E+02  3.85492E-06  1.0E-07
  5.250E-01  2.09899E-05  3.98317E-15  1.42242E+02  4.04435E-06  1.0E-07
  5.500E-01  2.30365E-05  3.97487E-15  1.41945E+02  4.23327E-06  1.0E-07
  5.750E-01  2.51783E-05  3.96622E-15  1.41636E+02  4.42166E-06  1.0E-07
  6.000E-01  2.74153E-05  3.95721E-15  1.41314E+02  4.60950E-06  1.0E-07
  6.250E-01  2.97475E-05  3.94785E-15  1.40980E+02  4.79675E-06  1.0E-07
  6.500E-01  3.21749E-05  3.93814E-15  1.40633E+02  4.98339E-06  1.0E-07
  6.750E-01  3.46974E-05  3.92809E-15  1.40275E+02  5.16939E-06  1.0E-07
  7.000E-01  3.73152E-05  3.91770E-15  1.39904E+02  5.35471E-06  1.0E-07
  7.250E-01  4.00281E-05  3.90698E-15  1.39521E+02  5.53933E-06  1.0E-07
  7.500E-01  4.28362E-05  3.89593E-15  1.39126E+02  5.72321E-06  1.0E-07
  7.750E-01  4.57395E-05  3.88455E-15  1.38720E+02  5.90633E-06  1.0E-07
  8.000E-01  4.87380E-05  3.87285E-15  1.38302E+02  6.08864E-06  1.0E-07
  8.250E-01  5.18317E-05  3.86084E-15  1.37873E+02  6.27012E-06  1.0E-07
  8.500E-01  5.50205E-05  3.84851E-15  1.37433E+02  6.45074E-06  1.0E-07
  8.750E-01  5.83045E-05  3.83588E-15  1.36982E+02  6.63045E-06  1.0E-07
  9.000E-01  6.16838E-05  3.82295E-15  1.36520E+02  6.80923E-06  1.0E-07
  9.250E-01  6.51582E-05  3.80972E-15  1.36048E+02  6.98703E-06  1.0E-07
  9.500E-01  6.87277E-05  3.79620E-15  1.35565E+02  7.16382E-06  1.0E-07
  9.750E-01  7.23925E-05  3.78240E-15  1.35072E+02  7.33956E-06  1.0E-07
  1.000E+00  7.61524E-05  3.76832E-15  1.34569E+02  7.51422E-06  1.0E-07
  1.100E+00  9.21439E-05  3.70929E-15  1.32461E+02  8.20117E-06  1.0E-07
  1.200E+00  1.09658E-04  3.64622E-15  1.30209E+02  8.86740E-06  1.0E-07
  1.300E+00  1.28695E-04  3.57949E-15  1.27826E+02  9.51000E-06  1.0E-07
  1.400E+00  1.49255E-04  3.50947E-15  1.25325E+02  1.01258E-05  1.0E-07
  1.500E+00  1.71338E-04  3.43654E-15  1.22721E+02  1.07113E-05  1.0E-07
  1.600E+00  1.94942E-04  3.36108E-15  1.20026E+02  1.12628E-05  1.0E-07
  1.700E+00  2.20070E-04  3.28346E-15  1.17255E+02  1.17761E-05  1.0E-07
  1.800E+00  2.46720E-04  3.20407E-15  1.14419E+02  1.22470E-05  1.0E-07
  1.900E+00  2.74892E-04  3.12325E-15  1.11533E+02  1.26706E-05  1.0E-07
  2.000E+00  3.04586E-04  3.04136E-15  1.08609E+02  1.30417E-05  1.0E-07
  2.100E+00  3.35803E-04  2.95872E-15  1.05658E+02  1.33550E-05  1.0E-07
  2.200E+00  3.68542E-04  2.87565E-15  1.02691E+02  1.36044E-05  1.0E-07
  2.300E+00  4.02802E-04  2.79244E-15  9.97197E+01  1.37838E-05  1.0E-07
  2.400E+00  4.38585E-04  2.70936E-15  9.67531E+01  1.38864E-05  1.0E-07
  2.500E+00  4.75889E-04  2.62668E-15  9.38005E+01  1.39051E-05  1.0E-07
  2.600E+00  5.14715E-04  2.54463E-15  9.08703E+01  1.38323E-05  1.0E-07
  2.700E+00  5.55063E-04  2.46341E-15  8.79699E+01  1.36601E-05  1.0E-07
  2.800E+00  5.96931E-04  2.38322E-15  8.51062E+01  1.33800E-05  1.0E-07
  2.900E+00  6.40321E-04  2.30423E-15  8.22854E+01  1.29833E-05  1.0E-07
  3.000E+00  6.85233E-04  2.22658E-15  7.95128E+01  1.24605E-05  1.0E-07
  3.100E+00  7.31665E-04  2.15042E-15  7.67930E+01  1.18020E-05  1.0E-07
  3.200E+00  7.79618E-04  2.07585E-15  7.41301E+01  1.09976E-05  1.0E-07
  3.300E+00  8.29092E-04  2.00297E-15  7.15274E+01  1.00367E-05  1.0E-07
  3.400E+00  8.80086E-04  1.93186E-15  6.89879E+01  8.90823E-06  1.0E-07
  3.500E+00  9.32601E-04  1.86257E-15  6.65137E+01  7.60074E-06  1.0E-07
  3.600E+00  9.86636E-04  1.79517E-15  6.41065E+01  6.10236E-06  1.0E-07
  3.700E+00  1.04219E-03  1.72967E-15  6.17678E+01  4.40079E-06  1.0E-07
  3.800E+00  1.09927E-03  1.66612E-15  5.94982E+01  2.48335E-06  1.0E-07
  3.900E+00  1.15786E-03  1.60452E-15  5.72983E+01  0.00000E+00  1.0E-07
  4.000E+00  1.21797E-03  1.54487E-15  5.51683E+01 -2.05180E-06  1.0E-07
  4.100E+00  1.27961E-03  1.48717E-15  5.31078E+01 -4.69674E-06  1.0E-07
  4.200E+00  1.34276E-03  1.43141E-15  5.11165E+01 -7.61199E-06  1.0E-07
  4.300E+00  1.40743E-03  1.37756E-15  4.91935E+01 -1.08120E-05  1.0E-07
  4.400E+00  1.47362E-03  1.32560E-15  4.73381E+01 -1.43116E-05  1.0E-07
  4.500E+00  1.54133E-03  1.27551E-15  4.55491E+01 -1.81258E-05  1.0E-07
  4.600E+00  1.61056E-03  1.22723E-15  4.38253E+01 -2.22699E-05  1.0E-07
  4.700E+00  1.68131E-03  1.18074E-15  4.21652E+01 -2.67594E-05  1.0E-07
  4.800E+00  1.75357E-03  1.13600E-15  4.05673E+01 -3.16103E-05  1.0E-07
  4.900E+00  1.82735E-03  1.09295E-15  3.90301E+01 -3.68383E-05  1.0E-07
  5.000E+00  1.90265E-03  1.05156E-15  3.75520E+01 -4.24599E-05  1.0E-07
  5.100E+00  1.97947E-03  1.01177E-15  3.61311E+01 -4.84911E-05  1.0E-07
  5.200E+00  2.05780E-03  9.73544E-16  3.47659E+01 -5.49485E-05  1.0E-07
  5.300E+00  2.13765E-03  9.36821E-16  3.34545E+01 -6.18486E-05  1.0E-07
  5.400E+00  2.21902E-03  9.01556E-16  3.21952E+01 -6.92081E-05  1.0E-07
  5.500E+00  2.30190E-03  8.67700E-16  3.09861E+01 -7.70436E-05  1.0E-07
  5.600E+00  2.38630E-03  8.35203E-16  2.98256E+01 -8.53717E-05  1.0E-07
  5.700E+00  2.47222E-03  8.04016E-16  2.87119E+01 -9.42092E-05  1.0E-07
  5.800E+00  2.55965E-03  7.74091E-16  2.76433E+01 -1.03573E-04  1.0E-07
  5.900E+00  2.64859E-03  7.45381E-16  2.66181E+01 -1.13479E-04  1.0E-07
  6.000E+00  2.73905E-03  7.17840E-16  2.56345E+01 -1.23944E-04  1.0E-07
  6.100E+00  2.83103E-03  6.91422E-16  2.46911E+01 -1.34985E-04  1.0E-07
  6.200E+00  2.92452E-03  6.66082E-16  2.37862E+01 -1.46617E-04  1.0E-07
  6.300E+00  3.01952E-03  6.41778E-16  2.29183E+01 -1.58857E-04  1.0E-07
  6.400E+00  3.11604E-03  6.18467E-16  2.20859E+01 -1.71721E-04  1.0E-07
  6.500E+00  3.21407E-03  5.96110E-16  2.12875E+01 -1.85223E-04  1.0E-07
  6.600E+00  3.31362E-03  5.74667E-16  2.05217E+01 -1.99380E-04  1.0E-07
  6.700E+00  3.41468E-03  5.54099E-16  1.97872E+01 -2.14206E-04  1.0E-07
  6.800E+00  3.51725E-03  5.34371E-16  1.90827E+01 -2.29717E-04  1.0E-07
  6.900E+00  3.62133E-03  5.15447E-16  1.84069E+01 -2.45925E-04  1.0E-07
  7.000E+00  3.72692E-03  4.97293E-16  1.77587E+01 -2.62845E-04  1.0E-07
  7.100E+00  3.83403E-03  4.79876E-16  1.71367E+01 -2.80491E-04  1.0E-07
  7.200E+00  3.94265E-03  4.63165E-16  1.65399E+01 -2.98876E-04  1.0E-07
  7.300E+00  4.05278E-03  4.47130E-16  1.59673E+01 -3.18011E-04  1.0E-07
  7.400E+00  4.16442E-03  4.31741E-16  1.54177E+01 -3.37909E-04  1.0E-07
  7.500E+00  4.27757E-03  4.16971E-16  1.48903E+01 -3.58580E-04  1.0E-07
  7.600E+00  4.39223E-03  4.02794E-16  1.43840E+01 -3.80036E-04  1.0E-07
  7.700E+00  4.50840E-03  3.89183E-16  1.38980E+01 -4.02287E-04  1.0E-07
  7.800E+00  4.62608E-03  3.76115E-16  1.34313E+01 -4.25342E-04  1.0E-07
  7.900E+00  4.74527E-03  3.63566E-16  1.29832E+01 -4.49209E-04  1.0E-07
  8.000E+00  4.86597E-03  3.51513E-16  1.25528E+01 -4.73896E-04  1.0E-07
  8.100E+00  4.98817E-03  3.39936E-16  1.21393E+01 -4.99411E-04  1.0E-07
  8.200E+00  5.11188E-03  3.28814E-16  1.17421E+01 -5.25759E-04  1.0E-07
  8.300E+00  5.23711E-03  3.18127E-16  1.13605E+01 -5.52945E-04  1.0E-07
  8.400E+00  5.36383E-03  3.07856E-16  1.09938E+01 -5.80975E-04  1.0E-07
  8.500E+00  5.49207E-03  2.97985E-16  1.06412E+01 -6.09851E-04  1.0E-07
  8.600E+00  5.62181E-03  2.88495E-16  1.03024E+01 -6.39576E-04  1.0E-07
  8.700E+00  5.75306E-03  2.79371E-16  9.97652E+00 -6.70152E-04  1.0E-07
  8.800E+00  5.88581E-03  2.70597E-16  9.66319E+00 -7.01578E-04  1.0E-07
  8.900E+00  6.02007E-03  2.62158E-16  9.36183E+00 -7.33854E-04  1.0E-07
  9.000E+00  6.15583E-03  2.54040E-16  9.07193E+00 -7.66978E-04  1.0E-07
  9.100E+00  6.29310E-03  2.46229E-16  8.79300E+00 -8.00948E-04  1.0E-07
  9.200E+00  6.43187E-03  2.38713E-16  8.52459E+00 -8.35759E-04  1.0E-07
  9.300E+00  6.57214E-03  2.31479E-16  8.26625E+00 -8.71405E-04  1.0E-07
  9.400E+00  6.71392E-03  2.24515E-16  8.01756E+00 -9.07880E-04  1.0E-07
  9.500E+00  6.85720E-03  2.17810E-16  7.77813E+00 -9.45177E-04  1.0E-07
  9.600E+00  7.00198E-03  2.11353E-16  7.54756E+00 -9.83285E-04  1.0E-07
  9.700E+00  7.14827E-03  2.05134E-16  7.32548E+00 -1.02220E-03  1.0E-07
  9.800E+00  7.29605E-03  1.99144E-16  7.11156E+00 -1.06190E-03  1.0E-07
  9.900E+00  7.44534E-03  1.93372E-16  6.90544E+00 -1.10237E-03  1.0E-07
  1.000E+01  7.59612E-03  1.87810E-16  6.70682E+00 -1.14361E-03  1.0E-07
  1.025E+01  7.97965E-03  1.74768E-16  6.24106E+00 -1.24994E-03  1.0E-07
  1.050E+01  8.37255E-03  1.62860E-16  5.81583E+00 -1.36063E-03  1.0E-07
  1.075E+01  8.77480E-03  1.51976E-16  5.42715E+00 -1.47537E-03  1.0E-07
  1.100E+01  9.18641E-03  1.42017E-16  5.07151E+00 -1.59373E-03  1.0E-07
  1.125E+01  9.60736E-03  1.32894E-16  4.74572E+00 -1.71529E-03  1.0E-07
  1.150E+01  1.00376E-02  1.24527E-16  4.44695E+00 -1.83953E-03  1.0E-07
  1.175E+01  1.04773E-02  1.16846E-16  4.17266E+00 -1.96589E-03  1.0E-07
  1.200E+01  1.09262E-02  1.09787E-16  3.92055E+00 -2.09379E-03  1.0E-07
  1.225E+01  1.13844E-02  1.03291E-16  3.68858E+00 -2.22255E-03  1.0E-07
  1.250E+01  1.18520E-02  9.73068E-17  3.47489E+00 -2.35151E-03  1.0E-07
  1.275E+01  1.23288E-02  9.17882E-17  3.27782E+00 -2.47993E-03  1.0E-07
  1.300E+01  1.28150E-02  8.66930E-17  3.09586E+00 -2.60705E-03  1.0E-07
  1.325E+01  1.33104E-02  8.19833E-17  2.92768E+00 -2.73208E-03  1.0E-07
  1.350E+01  1.38150E-02  7.76249E-17  2.77204E+00 -2.85423E-03  1.0E-07
  1.375E+01  1.43290E-02  7.35869E-17  2.62784E+00 -2.97267E-03  1.0E-07
  1.400E+01  1.48521E-02  6.98413E-17  2.49408E+00 -3.08656E-03  1.0E-07
  1.425E+01  1.53845E-02  6.63629E-17  2.36986E+00 -3.19507E-03  1.0E-07
  1.450E+01  1.59262E-02  6.31288E-17  2.25437E+00 -3.29736E-03  1.0E-07
  1.475E+01  1.64770E-02  6.01183E-17  2.14686E+00 -3.39259E-03  1.0E-07
  1.500E+01  1.70371E-02  5.73125E-17  2.04667E+00 -3.47995E-03  1.0E-07
