 #
 # Subroutine ELSEPA. Elastic scattering of electrons and positrons
 #                    by neutral atoms and positive ions
 #
 # Projectile: electron
 # Kinetic energy = 1.10000E+01 eV = 4.04243E-01 a.u.
 #
 #  ***  WARNING: Energy is too low.
 #                The reliability of the results is questionable.
 #
 # Element: Hg,  Z =  80,  atomic weight = 2.00590E+02 g/mol
 #
 # Nuclear model: Fermi distribution
 #                Average radius = 6.26355E-13 cm
 #                Skin thickness = 5.46000E-14 cm
 #
 # Number of electrons = 80
 #
 # Electron density: analytical DHFS model
 #                   A1 =  2.09753D-01 ,   ALPHA1 = 2.44080D+01
 #                   A2 =  6.00426D-01 ,   ALPHA2 = 3.96429D+00
 #                   A3 =  1.89821D-01 ,   ALPHA3 = 1.53432D+00
 #                   Volume integral = 8.00000E+01
 #
 # Furness-McCarthy exchange potential
 #
 # Total elastic cross section = 6.62526E-16 cm**2 = 2.36592E+01 a0**2
 # 1st transport cross section = 8.80257E-16 cm**2 = 3.14346E+01 a0**2
 # 2nd transport cross section = 4.84964E-16 cm**2 = 1.73184E+01 a0**2
 #
 #
 # Differential cross section:                       MU=(1-COS(THETA))/2
 #
 #  THETA        MU          DCS          DCS        Sherman      error
 #  (deg)                 (cm**2/sr)   (a0**2/sr)    function
 #----------------------------------------------------------------------
  0.000E+00  0.00000E+00  8.11385E-17  2.89751E+00  0.00000E+00  1.0E-07
  1.000E-04  7.61557E-13  8.11385E-17  2.89751E+00 -9.04766E-07  1.0E-07
  1.250E-04  1.18994E-12  8.11385E-17  2.89751E+00 -1.13096E-06  1.0E-07
  1.500E-04  1.71346E-12  8.11385E-17  2.89751E+00 -1.35715E-06  1.0E-07
  1.750E-04  2.33225E-12  8.11385E-17  2.89751E+00 -1.58334E-06  1.0E-07
  2.000E-04  3.04617E-12  8.11385E-17  2.89751E+00 -1.80953E-06  1.0E-07
  2.250E-04  3.85530E-12  8.11385E-17  2.89751E+00 -2.03572E-06  1.0E-07
  2.500E-04  4.75964E-12  8.11385E-17  2.89751E+00 -2.26192E-06  1.0E-07
  2.750E-04  5.75917E-12  8.11385E-17  2.89751E+00 -2.48811E-06  1.0E-07
  3.000E-04  6.85391E-12  8.11385E-17  2.89751E+00 -2.71430E-06  1.0E-07
  3.250E-04  8.04379E-12  8.11385E-17  2.89751E+00 -2.94049E-06  1.0E-07
  3.500E-04  9.32893E-12  8.11385E-17  2.89751E+00 -3.16668E-06  1.0E-07
  3.750E-04  1.07092E-11  8.11385E-17  2.89751E+00 -3.39287E-06  1.0E-07
  4.000E-04  1.21847E-11  8.11385E-17  2.89751E+00 -3.61907E-06  1.0E-07
  4.250E-04  1.37554E-11  8.11385E-17  2.89751E+00 -3.84526E-06  1.0E-07
  4.500E-04  1.54213E-11  8.11385E-17  2.89751E+00 -4.07145E-06  1.0E-07
  4.750E-04  1.71823E-11  8.11385E-17  2.89751E+00 -4.29764E-06  1.0E-07
  5.000E-04  1.90386E-11  8.11385E-17  2.89751E+00 -4.52383E-06  1.0E-07
  5.250E-04  2.09900E-11  8.11385E-17  2.89751E+00 -4.75002E-06  1.0E-07
  5.500E-04  2.30367E-11  8.11385E-17  2.89751E+00 -4.97622E-06  1.0E-07
  5.750E-04  2.51785E-11  8.11385E-17  2.89751E+00 -5.20241E-06  1.0E-07
  6.000E-04  2.74156E-11  8.11385E-17  2.89751E+00 -5.42860E-06  1.0E-07
  6.250E-04  2.97478E-11  8.11385E-17  2.89751E+00 -5.65479E-06  1.0E-07
  6.500E-04  3.21752E-11  8.11385E-17  2.89751E+00 -5.88098E-06  1.0E-07
  6.750E-04  3.46979E-11  8.11385E-17  2.89751E+00 -6.10717E-06  1.0E-07
  7.000E-04  3.73157E-11  8.11385E-17  2.89751E+00 -6.33337E-06  1.0E-07
  7.250E-04  4.00286E-11  8.11385E-17  2.89751E+00 -6.55956E-06  1.0E-07
  7.500E-04  4.28368E-11  8.11385E-17  2.89751E+00 -6.78575E-06  1.0E-07
  7.750E-04  4.57402E-11  8.11385E-17  2.89751E+00 -7.01194E-06  1.0E-07
  8.000E-04  4.87388E-11  8.11385E-17  2.89751E+00 -7.23813E-06  1.0E-07
  8.250E-04  5.18325E-11  8.11385E-17  2.89751E+00 -7.46432E-06  1.0E-07
  8.500E-04  5.50215E-11  8.11385E-17  2.89751E+00 -7.69051E-06  1.0E-07
  8.750E-04  5.83057E-11  8.11385E-17  2.89751E+00 -7.91671E-06  1.0E-07
  9.000E-04  6.16850E-11  8.11385E-17  2.89751E+00 -8.14290E-06  1.0E-07
  9.250E-04  6.51595E-11  8.11385E-17  2.89751E+00 -8.36909E-06  1.0E-07
  9.500E-04  6.87293E-11  8.11385E-17  2.89751E+00 -8.59528E-06  1.0E-07
  9.750E-04  7.23943E-11  8.11385E-17  2.89751E+00 -8.82147E-06  1.0E-07
  1.000E-03  7.61544E-11  8.11385E-17  2.89751E+00 -9.04766E-06  1.0E-07
  1.250E-03  1.18991E-10  8.11385E-17  2.89751E+00 -1.13096E-05  1.0E-07
  1.500E-03  1.71347E-10  8.11385E-17  2.89751E+00 -1.35715E-05  1.0E-07
  1.750E-03  2.33223E-10  8.11385E-17  2.89751E+00 -1.58334E-05  1.0E-07
  2.000E-03  3.04617E-10  8.11385E-17  2.89751E+00 -1.80953E-05  1.0E-07
  2.250E-03  3.85531E-10  8.11385E-17  2.89751E+00 -2.03572E-05  1.0E-07
  2.500E-03  4.75965E-10  8.11385E-17  2.89751E+00 -2.26192E-05  1.0E-07
  2.750E-03  5.75917E-10  8.11385E-17  2.89751E+00 -2.48811E-05  1.0E-07
  3.000E-03  6.85389E-10  8.11385E-17  2.89751E+00 -2.71430E-05  1.0E-07
  3.250E-03  8.04380E-10  8.11385E-17  2.89751E+00 -2.94049E-05  1.0E-07
  3.500E-03  9.32891E-10  8.11385E-17  2.89751E+00 -3.16668E-05  1.0E-07
  3.750E-03  1.07092E-09  8.11385E-17  2.89751E+00 -3.39287E-05  1.0E-07
  4.000E-03  1.21847E-09  8.11385E-17  2.89751E+00 -3.61907E-05  1.0E-07
  4.250E-03  1.37554E-09  8.11385E-17  2.89751E+00 -3.84526E-05  1.0E-07
  4.500E-03  1.54213E-09  8.11385E-17  2.89751E+00 -4.07145E-05  1.0E-07
  4.750E-03  1.71823E-09  8.11385E-17  2.89751E+00 -4.29764E-05  1.0E-07
  5.000E-03  1.90386E-09  8.11385E-17  2.89751E+00 -4.52383E-05  1.0E-07
  5.250E-03  2.09900E-09  8.11385E-17  2.89751E+00 -4.75002E-05  1.0E-07
  5.500E-03  2.30367E-09  8.11385E-17  2.89751E+00 -4.97622E-05  1.0E-07
  5.750E-03  2.51785E-09  8.11385E-17  2.89751E+00 -5.20241E-05  1.0E-07
  6.000E-03  2.74156E-09  8.11385E-17  2.89751E+00 -5.42860E-05  1.0E-07
  6.250E-03  2.97478E-09  8.11385E-17  2.89751E+00 -5.65479E-05  1.0E-07
  6.500E-03  3.21752E-09  8.11385E-17  2.89751E+00 -5.88098E-05  1.0E-07
  6.750E-03  3.46978E-09  8.11385E-17  2.89751E+00 -6.10717E-05  1.0E-07
  7.000E-03  3.73156E-09  8.11385E-17  2.89751E+00 -6.33337E-05  1.0E-07
  7.250E-03  4.00286E-09  8.11385E-17  2.89751E+00 -6.55956E-05  1.0E-07
  7.500E-03  4.28368E-09  8.11385E-17  2.89751E+00 -6.78575E-05  1.0E-07
  7.750E-03  4.57402E-09  8.11385E-17  2.89751E+00 -7.01194E-05  1.0E-07
  8.000E-03  4.87388E-09  8.11385E-17  2.89751E+00 -7.23813E-05  1.0E-07
  8.250E-03  5.18326E-09  8.11385E-17  2.89751E+00 -7.46432E-05  1.0E-07
  8.500E-03  5.50215E-09  8.11385E-17  2.89751E+00 -7.69051E-05  1.0E-07
  8.750E-03  5.83057E-09  8.11385E-17  2.89751E+00 -7.91671E-05  1.0E-07
  9.000E-03  6.16850E-09  8.11385E-17  2.89751E+00 -8.14290E-05  1.0E-07
  9.250E-03  6.51596E-09  8.11385E-17  2.89751E+00 -8.36909E-05  1.0E-07
  9.500E-03  6.87293E-09  8.11385E-17  2.89751E+00 -8.59528E-05  1.0E-07
  9.750E-03  7.23942E-09  8.11385E-17  2.89751E+00 -8.82147E-05  1.0E-07
  1.000E-02  7.61544E-09  8.11385E-17  2.89751E+00 -9.04766E-05  1.0E-07
  1.250E-02  1.18991E-08  8.11385E-17  2.89751E+00 -1.13096E-04  1.0E-07
  1.500E-02  1.71347E-08  8.11385E-17  2.89751E+00 -1.35715E-04  1.0E-07
  1.750E-02  2.33223E-08  8.11385E-17  2.89751E+00 -1.58334E-04  1.0E-07
  2.000E-02  3.04617E-08  8.11385E-17  2.89751E+00 -1.80953E-04  1.0E-07
  2.250E-02  3.85531E-08  8.11385E-17  2.89751E+00 -2.03572E-04  1.0E-07
  2.500E-02  4.75965E-08  8.11385E-17  2.89751E+00 -2.26192E-04  1.0E-07
  2.750E-02  5.75917E-08  8.11385E-17  2.89751E+00 -2.48811E-04  1.0E-07
  3.000E-02  6.85389E-08  8.11385E-17  2.89751E+00 -2.71430E-04  1.0E-07
  3.250E-02  8.04380E-08  8.11385E-17  2.89751E+00 -2.94049E-04  1.0E-07
  3.500E-02  9.32891E-08  8.11385E-17  2.89751E+00 -3.16668E-04  1.0E-07
  3.750E-02  1.07092E-07  8.11384E-17  2.89751E+00 -3.39288E-04  1.0E-07
  4.000E-02  1.21847E-07  8.11384E-17  2.89751E+00 -3.61907E-04  1.0E-07
  4.250E-02  1.37554E-07  8.11384E-17  2.89751E+00 -3.84526E-04  1.0E-07
  4.500E-02  1.54213E-07  8.11384E-17  2.89750E+00 -4.07145E-04  1.0E-07
  4.750E-02  1.71823E-07  8.11384E-17  2.89750E+00 -4.29764E-04  1.0E-07
  5.000E-02  1.90386E-07  8.11384E-17  2.89750E+00 -4.52383E-04  1.0E-07
  5.250E-02  2.09900E-07  8.11384E-17  2.89750E+00 -4.75003E-04  1.0E-07
  5.500E-02  2.30367E-07  8.11383E-17  2.89750E+00 -4.97622E-04  1.0E-07
  5.750E-02  2.51785E-07  8.11383E-17  2.89750E+00 -5.20241E-04  1.0E-07
  6.000E-02  2.74156E-07  8.11383E-17  2.89750E+00 -5.42860E-04  1.0E-07
  6.250E-02  2.97478E-07  8.11383E-17  2.89750E+00 -5.65479E-04  1.0E-07
  6.500E-02  3.21752E-07  8.11383E-17  2.89750E+00 -5.88099E-04  1.0E-07
  6.750E-02  3.46978E-07  8.11383E-17  2.89750E+00 -6.10718E-04  1.0E-07
  7.000E-02  3.73156E-07  8.11382E-17  2.89750E+00 -6.33337E-04  1.0E-07
  7.250E-02  4.00286E-07  8.11382E-17  2.89750E+00 -6.55956E-04  1.0E-07
  7.500E-02  4.28368E-07  8.11382E-17  2.89750E+00 -6.78576E-04  1.0E-07
  7.750E-02  4.57402E-07  8.11382E-17  2.89750E+00 -7.01195E-04  1.0E-07
  8.000E-02  4.87388E-07  8.11381E-17  2.89750E+00 -7.23814E-04  1.0E-07
  8.250E-02  5.18325E-07  8.11381E-17  2.89749E+00 -7.46433E-04  1.0E-07
  8.500E-02  5.50215E-07  8.11381E-17  2.89749E+00 -7.69053E-04  1.0E-07
  8.750E-02  5.83057E-07  8.11381E-17  2.89749E+00 -7.91672E-04  1.0E-07
  9.000E-02  6.16850E-07  8.11380E-17  2.89749E+00 -8.14291E-04  1.0E-07
  9.250E-02  6.51596E-07  8.11380E-17  2.89749E+00 -8.36910E-04  1.0E-07
  9.500E-02  6.87293E-07  8.11380E-17  2.89749E+00 -8.59530E-04  1.0E-07
  9.750E-02  7.23942E-07  8.11380E-17  2.89749E+00 -8.82149E-04  1.0E-07
  1.000E-01  7.61543E-07  8.11379E-17  2.89749E+00 -9.04768E-04  1.0E-07
  1.250E-01  1.18991E-06  8.11376E-17  2.89748E+00 -1.13096E-03  1.0E-07
  1.500E-01  1.71347E-06  8.11372E-17  2.89746E+00 -1.35716E-03  1.0E-07
  1.750E-01  2.33223E-06  8.11367E-17  2.89744E+00 -1.58335E-03  1.0E-07
  2.000E-01  3.04617E-06  8.11361E-17  2.89742E+00 -1.80955E-03  1.0E-07
  2.250E-01  3.85531E-06  8.11355E-17  2.89740E+00 -2.03575E-03  1.0E-07
  2.500E-01  4.75964E-06  8.11348E-17  2.89737E+00 -2.26195E-03  1.0E-07
  2.750E-01  5.75916E-06  8.11340E-17  2.89735E+00 -2.48815E-03  1.0E-07
  3.000E-01  6.85388E-06  8.11331E-17  2.89732E+00 -2.71435E-03  1.0E-07
  3.250E-01  8.04378E-06  8.11322E-17  2.89728E+00 -2.94056E-03  1.0E-07
  3.500E-01  9.32888E-06  8.11311E-17  2.89725E+00 -3.16677E-03  1.0E-07
  3.750E-01  1.07092E-05  8.11301E-17  2.89721E+00 -3.39298E-03  1.0E-07
  4.000E-01  1.21846E-05  8.11289E-17  2.89717E+00 -3.61919E-03  1.0E-07
  4.250E-01  1.37553E-05  8.11276E-17  2.89712E+00 -3.84541E-03  1.0E-07
  4.500E-01  1.54212E-05  8.11263E-17  2.89707E+00 -4.07163E-03  1.0E-07
  4.750E-01  1.71822E-05  8.11249E-17  2.89702E+00 -4.29785E-03  1.0E-07
  5.000E-01  1.90385E-05  8.11235E-17  2.89697E+00 -4.52407E-03  1.0E-07
  5.250E-01  2.09899E-05  8.11219E-17  2.89692E+00 -4.75030E-03  1.0E-07
  5.500E-01  2.30365E-05  8.11203E-17  2.89686E+00 -4.97654E-03  1.0E-07
  5.750E-01  2.51783E-05  8.11186E-17  2.89680E+00 -5.20277E-03  1.0E-07
  6.000E-01  2.74153E-05  8.11169E-17  2.89674E+00 -5.42902E-03  1.0E-07
  6.250E-01  2.97475E-05  8.11150E-17  2.89667E+00 -5.65526E-03  1.0E-07
  6.500E-01  3.21749E-05  8.11131E-17  2.89660E+00 -5.88151E-03  1.0E-07
  6.750E-01  3.46974E-05  8.11111E-17  2.89653E+00 -6.10777E-03  1.0E-07
  7.000E-01  3.73152E-05  8.11090E-17  2.89646E+00 -6.33403E-03  1.0E-07
  7.250E-01  4.00281E-05  8.11069E-17  2.89638E+00 -6.56029E-03  1.0E-07
  7.500E-01  4.28362E-05  8.11047E-17  2.89630E+00 -6.78656E-03  1.0E-07
  7.750E-01  4.57395E-05  8.11024E-17  2.89622E+00 -7.01284E-03  1.0E-07
  8.000E-01  4.87380E-05  8.11000E-17  2.89613E+00 -7.23912E-03  1.0E-07
  8.250E-01  5.18317E-05  8.10976E-17  2.89605E+00 -7.46541E-03  1.0E-07
  8.500E-01  5.50205E-05  8.10950E-17  2.89596E+00 -7.69170E-03  1.0E-07
  8.750E-01  5.83045E-05  8.10924E-17  2.89586E+00 -7.91800E-03  1.0E-07
  9.000E-01  6.16838E-05  8.10898E-17  2.89577E+00 -8.14431E-03  1.0E-07
  9.250E-01  6.51582E-05  8.10870E-17  2.89567E+00 -8.37062E-03  1.0E-07
  9.500E-01  6.87277E-05  8.10842E-17  2.89557E+00 -8.59694E-03  1.0E-07
  9.750E-01  7.23925E-05  8.10813E-17  2.89547E+00 -8.82327E-03  1.0E-07
  1.000E+00  7.61524E-05  8.10783E-17  2.89536E+00 -9.04960E-03  1.0E-07
  1.100E+00  9.21439E-05  8.10657E-17  2.89491E+00 -9.95501E-03  1.0E-07
  1.200E+00  1.09658E-04  8.10519E-17  2.89441E+00 -1.08605E-02  1.0E-07
  1.300E+00  1.28695E-04  8.10368E-17  2.89388E+00 -1.17662E-02  1.0E-07
  1.400E+00  1.49255E-04  8.10206E-17  2.89330E+00 -1.26720E-02  1.0E-07
  1.500E+00  1.71338E-04  8.10031E-17  2.89267E+00 -1.35780E-02  1.0E-07
  1.600E+00  1.94942E-04  8.09845E-17  2.89201E+00 -1.44842E-02  1.0E-07
  1.700E+00  2.20070E-04  8.09647E-17  2.89130E+00 -1.53905E-02  1.0E-07
  1.800E+00  2.46720E-04  8.09436E-17  2.89055E+00 -1.62971E-02  1.0E-07
  1.900E+00  2.74892E-04  8.09214E-17  2.88976E+00 -1.72038E-02  1.0E-07
  2.000E+00  3.04586E-04  8.08980E-17  2.88892E+00 -1.81108E-02  1.0E-07
  2.100E+00  3.35803E-04  8.08733E-17  2.88804E+00 -1.90180E-02  1.0E-07
  2.200E+00  3.68542E-04  8.08475E-17  2.88712E+00 -1.99255E-02  1.0E-07
  2.300E+00  4.02802E-04  8.08205E-17  2.88615E+00 -2.08332E-02  1.0E-07
  2.400E+00  4.38585E-04  8.07923E-17  2.88514E+00 -2.17412E-02  1.0E-07
  2.500E+00  4.75889E-04  8.07629E-17  2.88409E+00 -2.26494E-02  1.0E-07
  2.600E+00  5.14715E-04  8.07323E-17  2.88300E+00 -2.35580E-02  1.0E-07
  2.700E+00  5.55063E-04  8.07005E-17  2.88187E+00 -2.44669E-02  1.0E-07
  2.800E+00  5.96931E-04  8.06675E-17  2.88069E+00 -2.53760E-02  1.0E-07
  2.900E+00  6.40321E-04  8.06334E-17  2.87947E+00 -2.62855E-02  1.0E-07
  3.000E+00  6.85233E-04  8.05980E-17  2.87821E+00 -2.71954E-02  1.0E-07
  3.100E+00  7.31665E-04  8.05615E-17  2.87690E+00 -2.81056E-02  1.0E-07
  3.200E+00  7.79618E-04  8.05238E-17  2.87556E+00 -2.90161E-02  1.0E-07
  3.300E+00  8.29092E-04  8.04848E-17  2.87417E+00 -2.99271E-02  1.0E-07
  3.400E+00  8.80086E-04  8.04448E-17  2.87273E+00 -3.08384E-02  1.0E-07
  3.500E+00  9.32601E-04  8.04035E-17  2.87126E+00 -3.17501E-02  1.0E-07
  3.600E+00  9.86636E-04  8.03611E-17  2.86975E+00 -3.26622E-02  1.0E-07
  3.700E+00  1.04219E-03  8.03174E-17  2.86819E+00 -3.35748E-02  1.0E-07
  3.800E+00  1.09927E-03  8.02726E-17  2.86659E+00 -3.44878E-02  1.0E-07
  3.900E+00  1.15786E-03  8.02267E-17  2.86495E+00 -3.54012E-02  1.0E-07
  4.000E+00  1.21797E-03  8.01795E-17  2.86326E+00 -3.63151E-02  1.0E-07
  4.100E+00  1.27961E-03  8.01312E-17  2.86154E+00 -3.72295E-02  1.0E-07
  4.200E+00  1.34276E-03  8.00817E-17  2.85977E+00 -3.81444E-02  1.0E-07
  4.300E+00  1.40743E-03  8.00310E-17  2.85796E+00 -3.90597E-02  1.0E-07
  4.400E+00  1.47362E-03  7.99792E-17  2.85611E+00 -3.99756E-02  1.0E-07
  4.500E+00  1.54133E-03  7.99262E-17  2.85422E+00 -4.08920E-02  1.0E-07
  4.600E+00  1.61056E-03  7.98721E-17  2.85228E+00 -4.18089E-02  1.0E-07
  4.700E+00  1.68131E-03  7.98168E-17  2.85031E+00 -4.27264E-02  1.0E-07
  4.800E+00  1.75357E-03  7.97603E-17  2.84829E+00 -4.36444E-02  1.0E-07
  4.900E+00  1.82735E-03  7.97027E-17  2.84623E+00 -4.45630E-02  1.0E-07
  5.000E+00  1.90265E-03  7.96439E-17  2.84413E+00 -4.54822E-02  1.0E-07
  5.100E+00  1.97947E-03  7.95839E-17  2.84199E+00 -4.64020E-02  1.0E-07
  5.200E+00  2.05780E-03  7.95228E-17  2.83981E+00 -4.73224E-02  1.0E-07
  5.300E+00  2.13765E-03  7.94606E-17  2.83759E+00 -4.82434E-02  1.0E-07
  5.400E+00  2.21902E-03  7.93972E-17  2.83533E+00 -4.91650E-02  1.0E-07
  5.500E+00  2.30190E-03  7.93327E-17  2.83302E+00 -5.00873E-02  1.0E-07
  5.600E+00  2.38630E-03  7.92670E-17  2.83068E+00 -5.10103E-02  1.0E-07
  5.700E+00  2.47222E-03  7.92002E-17  2.82829E+00 -5.19339E-02  1.0E-07
  5.800E+00  2.55965E-03  7.91322E-17  2.82586E+00 -5.28582E-02  1.0E-07
  5.900E+00  2.64859E-03  7.90631E-17  2.82340E+00 -5.37832E-02  1.0E-07
  6.000E+00  2.73905E-03  7.89929E-17  2.82089E+00 -5.47090E-02  1.0E-07
  6.100E+00  2.83103E-03  7.89215E-17  2.81834E+00 -5.56354E-02  1.0E-07
  6.200E+00  2.92452E-03  7.88490E-17  2.81575E+00 -5.65626E-02  1.0E-07
  6.300E+00  3.01952E-03  7.87754E-17  2.81312E+00 -5.74906E-02  1.0E-07
  6.400E+00  3.11604E-03  7.87007E-17  2.81045E+00 -5.84193E-02  1.0E-07
  6.500E+00  3.21407E-03  7.86248E-17  2.80774E+00 -5.93488E-02  1.0E-07
  6.600E+00  3.31362E-03  7.85478E-17  2.80499E+00 -6.02791E-02  1.0E-07
  6.700E+00  3.41468E-03  7.84697E-17  2.80221E+00 -6.12102E-02  1.0E-07
  6.800E+00  3.51725E-03  7.83905E-17  2.79938E+00 -6.21421E-02  1.0E-07
  6.900E+00  3.62133E-03  7.83102E-17  2.79651E+00 -6.30748E-02  1.0E-07
  7.000E+00  3.72692E-03  7.82288E-17  2.79360E+00 -6.40084E-02  1.0E-07
  7.100E+00  3.83403E-03  7.81462E-17  2.79065E+00 -6.49429E-02  1.0E-07
  7.200E+00  3.94265E-03  7.80626E-17  2.78766E+00 -6.58782E-02  1.0E-07
  7.300E+00  4.05278E-03  7.79778E-17  2.78464E+00 -6.68144E-02  1.0E-07
  7.400E+00  4.16442E-03  7.78920E-17  2.78157E+00 -6.77515E-02  1.0E-07
  7.500E+00  4.27757E-03  7.78050E-17  2.77847E+00 -6.86895E-02  1.0E-07
  7.600E+00  4.39223E-03  7.77170E-17  2.77532E+00 -6.96285E-02  1.0E-07
  7.700E+00  4.50840E-03  7.76279E-17  2.77214E+00 -7.05684E-02  1.0E-07
  7.800E+00  4.62608E-03  7.75377E-17  2.76892E+00 -7.15092E-02  1.0E-07
  7.900E+00  4.74527E-03  7.74464E-17  2.76566E+00 -7.24511E-02  1.0E-07
  8.000E+00  4.86597E-03  7.73540E-17  2.76236E+00 -7.33939E-02  1.0E-07
  8.100E+00  4.98817E-03  7.72606E-17  2.75902E+00 -7.43377E-02  1.0E-07
  8.200E+00  5.11188E-03  7.71660E-17  2.75565E+00 -7.52825E-02  1.0E-07
  8.300E+00  5.23711E-03  7.70704E-17  2.75224E+00 -7.62284E-02  1.0E-07
  8.400E+00  5.36383E-03  7.69738E-17  2.74878E+00 -7.71753E-02  1.0E-07
  8.500E+00  5.49207E-03  7.68760E-17  2.74529E+00 -7.81232E-02  1.0E-07
  8.600E+00  5.62181E-03  7.67772E-17  2.74177E+00 -7.90723E-02  1.0E-07
  8.700E+00  5.75306E-03  7.66774E-17  2.73820E+00 -8.00224E-02  1.0E-07
  8.800E+00  5.88581E-03  7.65765E-17  2.73460E+00 -8.09736E-02  1.0E-07
  8.900E+00  6.02007E-03  7.64745E-17  2.73096E+00 -8.19259E-02  1.0E-07
  9.000E+00  6.15583E-03  7.63715E-17  2.72728E+00 -8.28794E-02  1.0E-07
  9.100E+00  6.29310E-03  7.62675E-17  2.72356E+00 -8.38340E-02  1.0E-07
  9.200E+00  6.43187E-03  7.61624E-17  2.71981E+00 -8.47898E-02  1.0E-07
  9.300E+00  6.57214E-03  7.60562E-17  2.71602E+00 -8.57468E-02  1.0E-07
  9.400E+00  6.71392E-03  7.59491E-17  2.71219E+00 -8.67049E-02  1.0E-07
  9.500E+00  6.85720E-03  7.58409E-17  2.70833E+00 -8.76643E-02  1.0E-07
  9.600E+00  7.00198E-03  7.57317E-17  2.70443E+00 -8.86249E-02  1.0E-07
  9.700E+00  7.14827E-03  7.56214E-17  2.70049E+00 -8.95867E-02  1.0E-07
  9.800E+00  7.29605E-03  7.55101E-17  2.69652E+00 -9.05498E-02  1.0E-07
  9.900E+00  7.44534E-03  7.53978E-17  2.69251E+00 -9.15141E-02  1.0E-07
  1.000E+01  7.59612E-03  7.52845E-17  2.68846E+00 -9.24798E-02  1.0E-07
  1.025E+01  7.97965E-03  7.49969E-17  2.67819E+00 -9.48996E-02  1.0E-07
  1.050E+01  8.37255E-03  7.47029E-17  2.66769E+00 -9.73279E-02  1.0E-07
  1.075E+01  8.77480E-03  7.44028E-17  2.65697E+00 -9.97648E-02  1.0E-07
  1.100E+01  9.18641E-03  7.40966E-17  2.64604E+00 -1.02211E-01  1.0E-07
  1.125E+01  9.60736E-03  7.37842E-17  2.63488E+00 -1.04666E-01  1.0E-07
  1.150E+01  1.00376E-02  7.34659E-17  2.62352E+00 -1.07130E-01  1.0E-07
  1.175E+01  1.04773E-02  7.31416E-17  2.61193E+00 -1.09604E-01  1.0E-07
  1.200E+01  1.09262E-02  7.28115E-17  2.60014E+00 -1.12089E-01  1.0E-07
  1.225E+01  1.13844E-02  7.24755E-17  2.58815E+00 -1.14583E-01  1.0E-07
  1.250E+01  1.18520E-02  7.21337E-17  2.57594E+00 -1.17089E-01  1.0E-07
  1.275E+01  1.23288E-02  7.17863E-17  2.56354E+00 -1.19605E-01  1.0E-07
  1.300E+01  1.28150E-02  7.14333E-17  2.55093E+00 -1.22132E-01  1.0E-07
  1.325E+01  1.33104E-02  7.10747E-17  2.53813E+00 -1.24671E-01  1.0E-07
  1.350E+01  1.38150E-02  7.07107E-17  2.52513E+00 -1.27221E-01  1.0E-07
  1.375E+01  1.43290E-02  7.03413E-17  2.51193E+00 -1.29784E-01  1.0E-07
  1.400E+01  1.48521E-02  6.99665E-17  2.49855E+00 -1.32359E-01  1.0E-07
  1.425E+01  1.53845E-02  6.95865E-17  2.48498E+00 -1.34948E-01  1.0E-07
  1.450E+01  1.59262E-02  6.92013E-17  2.47122E+00 -1.37549E-01  1.0E-07
