 #
 # Subroutine ELSEPA. Elastic scattering of electrons and positrons
 #                    by neutral atoms and positive ions
 #
 # Projectile: electron
 # Kinetic energy = 2.50000E+03 eV = 9.18733E+01 a.u.
 #
 # Element: Hg,  Z =  80,  atomic weight = 2.00590E+02 g/mol
 #
 # Nuclear model: Fermi distribution
 #                Average radius = 6.26355E-13 cm
 #                Skin thickness = 5.46000E-14 cm
 #
 # Number of electrons = 80
 #
 # Electron density: Read from file z_080.den   
 #                   Number of data points =  763
 #                   Volume integral = 8.00000E+01
 #
 # Riley-Truhlar exchange potential
 #
 # Correlation-polarization potential (Buckingham):
 #                           Alpha = 5.10000E-24 cm**3
 #                            Bpol = 1.23744E+01
 #
 # Total elastic cross section = 1.74343E-16 cm**2 = 6.22590E+00 a0**2
 # 1st transport cross section = 2.83168E-17 cm**2 = 1.01121E+00 a0**2
 # 2nd transport cross section = 2.79292E-17 cm**2 = 9.97371E-01 a0**2
 #
 #
 # Differential cross section:                       MU=(1-COS(THETA))/2
 #
 #  THETA        MU          DCS          DCS        Sherman      error
 #  (deg)                 (cm**2/sr)   (a0**2/sr)    function
 #----------------------------------------------------------------------
  0.000E+00  0.00000E+00  7.82710E-15  2.79511E+02  0.00000E+00  3.4E-05
  1.000E-04  7.61557E-13  7.82710E-15  2.79511E+02  2.97910E-09  3.4E-05
  1.250E-04  1.18994E-12  7.82710E-15  2.79511E+02  3.72387E-09  3.4E-05
  1.500E-04  1.71346E-12  7.82710E-15  2.79511E+02  4.46865E-09  3.4E-05
  1.750E-04  2.33225E-12  7.82710E-15  2.79511E+02  5.21342E-09  3.4E-05
  2.000E-04  3.04617E-12  7.82710E-15  2.79511E+02  5.95820E-09  3.4E-05
  2.250E-04  3.85530E-12  7.82710E-15  2.79511E+02  6.70297E-09  3.4E-05
  2.500E-04  4.75964E-12  7.82710E-15  2.79511E+02  7.44775E-09  3.4E-05
  2.750E-04  5.75917E-12  7.82710E-15  2.79511E+02  8.19252E-09  3.4E-05
  3.000E-04  6.85391E-12  7.82710E-15  2.79511E+02  8.93730E-09  3.4E-05
  3.250E-04  8.04379E-12  7.82710E-15  2.79511E+02  9.68207E-09  3.4E-05
  3.500E-04  9.32893E-12  7.82710E-15  2.79511E+02  1.04268E-08  3.4E-05
  3.750E-04  1.07092E-11  7.82710E-15  2.79511E+02  1.11716E-08  3.4E-05
  4.000E-04  1.21847E-11  7.82710E-15  2.79511E+02  1.19164E-08  3.4E-05
  4.250E-04  1.37554E-11  7.82710E-15  2.79511E+02  1.26612E-08  3.4E-05
  4.500E-04  1.54213E-11  7.82710E-15  2.79511E+02  1.34060E-08  3.4E-05
  4.750E-04  1.71823E-11  7.82710E-15  2.79511E+02  1.41507E-08  3.4E-05
  5.000E-04  1.90386E-11  7.82710E-15  2.79511E+02  1.48955E-08  3.4E-05
  5.250E-04  2.09900E-11  7.82710E-15  2.79511E+02  1.56403E-08  3.4E-05
  5.500E-04  2.30367E-11  7.82710E-15  2.79511E+02  1.63851E-08  3.4E-05
  5.750E-04  2.51785E-11  7.82710E-15  2.79511E+02  1.71298E-08  3.4E-05
  6.000E-04  2.74156E-11  7.82710E-15  2.79511E+02  1.78746E-08  3.4E-05
  6.250E-04  2.97478E-11  7.82710E-15  2.79511E+02  1.86194E-08  3.4E-05
  6.500E-04  3.21752E-11  7.82710E-15  2.79511E+02  1.93642E-08  3.4E-05
  6.750E-04  3.46979E-11  7.82710E-15  2.79511E+02  2.01089E-08  3.4E-05
  7.000E-04  3.73157E-11  7.82710E-15  2.79511E+02  2.08537E-08  3.4E-05
  7.250E-04  4.00286E-11  7.82710E-15  2.79511E+02  2.15985E-08  3.4E-05
  7.500E-04  4.28368E-11  7.82710E-15  2.79511E+02  2.23433E-08  3.4E-05
  7.750E-04  4.57402E-11  7.82710E-15  2.79511E+02  2.30880E-08  3.4E-05
  8.000E-04  4.87388E-11  7.82709E-15  2.79511E+02  2.38328E-08  3.4E-05
  8.250E-04  5.18325E-11  7.82709E-15  2.79511E+02  2.45776E-08  3.4E-05
  8.500E-04  5.50215E-11  7.82709E-15  2.79511E+02  2.53224E-08  3.4E-05
  8.750E-04  5.83057E-11  7.82709E-15  2.79511E+02  2.60671E-08  3.4E-05
  9.000E-04  6.16850E-11  7.82709E-15  2.79511E+02  2.68119E-08  3.4E-05
  9.250E-04  6.51595E-11  7.82709E-15  2.79511E+02  2.75567E-08  3.4E-05
  9.500E-04  6.87293E-11  7.82709E-15  2.79511E+02  2.83015E-08  3.4E-05
  9.750E-04  7.23943E-11  7.82709E-15  2.79510E+02  2.90462E-08  3.4E-05
  1.000E-03  7.61544E-11  7.82709E-15  2.79510E+02  2.97910E-08  3.4E-05
  1.250E-03  1.18991E-10  7.82708E-15  2.79510E+02  3.72388E-08  3.4E-05
  1.500E-03  1.71347E-10  7.82708E-15  2.79510E+02  4.46866E-08  3.4E-05
  1.750E-03  2.33223E-10  7.82707E-15  2.79510E+02  5.21343E-08  3.4E-05
  2.000E-03  3.04617E-10  7.82705E-15  2.79509E+02  5.95821E-08  3.4E-05
  2.250E-03  3.85531E-10  7.82704E-15  2.79509E+02  6.70300E-08  3.4E-05
  2.500E-03  4.75965E-10  7.82703E-15  2.79508E+02  7.44778E-08  3.4E-05
  2.750E-03  5.75917E-10  7.82701E-15  2.79508E+02  8.19256E-08  3.4E-05
  3.000E-03  6.85389E-10  7.82699E-15  2.79507E+02  8.93735E-08  3.4E-05
  3.250E-03  8.04380E-10  7.82697E-15  2.79506E+02  9.68214E-08  3.4E-05
  3.500E-03  9.32891E-10  7.82695E-15  2.79506E+02  1.04269E-07  3.4E-05
  3.750E-03  1.07092E-09  7.82693E-15  2.79505E+02  1.11717E-07  3.4E-05
  4.000E-03  1.21847E-09  7.82691E-15  2.79504E+02  1.19165E-07  3.4E-05
  4.250E-03  1.37554E-09  7.82688E-15  2.79503E+02  1.26613E-07  3.4E-05
  4.500E-03  1.54213E-09  7.82685E-15  2.79502E+02  1.34061E-07  3.4E-05
  4.750E-03  1.71823E-09  7.82682E-15  2.79501E+02  1.41509E-07  3.4E-05
  5.000E-03  1.90386E-09  7.82679E-15  2.79500E+02  1.48957E-07  3.4E-05
  5.250E-03  2.09900E-09  7.82676E-15  2.79499E+02  1.56406E-07  3.4E-05
  5.500E-03  2.30367E-09  7.82673E-15  2.79498E+02  1.63854E-07  3.4E-05
  5.750E-03  2.51785E-09  7.82670E-15  2.79496E+02  1.71302E-07  3.4E-05
  6.000E-03  2.74156E-09  7.82666E-15  2.79495E+02  1.78750E-07  3.4E-05
  6.250E-03  2.97478E-09  7.82662E-15  2.79494E+02  1.86199E-07  3.4E-05
  6.500E-03  3.21752E-09  7.82658E-15  2.79492E+02  1.93647E-07  3.4E-05
  6.750E-03  3.46978E-09  7.82654E-15  2.79491E+02  2.01095E-07  3.4E-05
  7.000E-03  3.73156E-09  7.82650E-15  2.79489E+02  2.08544E-07  3.4E-05
  7.250E-03  4.00286E-09  7.82645E-15  2.79488E+02  2.15992E-07  3.4E-05
  7.500E-03  4.28368E-09  7.82641E-15  2.79486E+02  2.23441E-07  3.4E-05
  7.750E-03  4.57402E-09  7.82636E-15  2.79484E+02  2.30889E-07  3.4E-05
  8.000E-03  4.87388E-09  7.82631E-15  2.79483E+02  2.38338E-07  3.4E-05
  8.250E-03  5.18326E-09  7.82626E-15  2.79481E+02  2.45787E-07  3.4E-05
  8.500E-03  5.50215E-09  7.82621E-15  2.79479E+02  2.53236E-07  3.4E-05
  8.750E-03  5.83057E-09  7.82616E-15  2.79477E+02  2.60684E-07  3.4E-05
  9.000E-03  6.16850E-09  7.82610E-15  2.79475E+02  2.68133E-07  3.4E-05
  9.250E-03  6.51596E-09  7.82605E-15  2.79473E+02  2.75582E-07  3.4E-05
  9.500E-03  6.87293E-09  7.82599E-15  2.79471E+02  2.83031E-07  3.4E-05
  9.750E-03  7.23942E-09  7.82593E-15  2.79469E+02  2.90480E-07  3.4E-05
  1.000E-02  7.61544E-09  7.82587E-15  2.79467E+02  2.97930E-07  3.4E-05
  1.250E-02  1.18991E-08  7.82518E-15  2.79442E+02  3.72426E-07  3.3E-05
  1.500E-02  1.71347E-08  7.82433E-15  2.79412E+02  4.46931E-07  3.3E-05
  1.750E-02  2.33223E-08  7.82333E-15  2.79376E+02  5.21448E-07  3.3E-05
  2.000E-02  3.04617E-08  7.82218E-15  2.79335E+02  5.95977E-07  3.3E-05
  2.250E-02  3.85531E-08  7.82087E-15  2.79288E+02  6.70522E-07  3.3E-05
  2.500E-02  4.75965E-08  7.81941E-15  2.79236E+02  7.45082E-07  3.3E-05
  2.750E-02  5.75917E-08  7.81780E-15  2.79179E+02  8.19661E-07  3.3E-05
  3.000E-02  6.85389E-08  7.81604E-15  2.79116E+02  8.94261E-07  3.2E-05
  3.250E-02  8.04380E-08  7.81413E-15  2.79048E+02  9.68882E-07  3.2E-05
  3.500E-02  9.32891E-08  7.81206E-15  2.78974E+02  1.04353E-06  3.2E-05
  3.750E-02  1.07092E-07  7.80985E-15  2.78895E+02  1.11820E-06  3.2E-05
  4.000E-02  1.21847E-07  7.80749E-15  2.78810E+02  1.19290E-06  3.2E-05
  4.250E-02  1.37554E-07  7.80498E-15  2.78721E+02  1.26762E-06  3.1E-05
  4.500E-02  1.54213E-07  7.80232E-15  2.78626E+02  1.34238E-06  3.1E-05
  4.750E-02  1.71823E-07  7.79951E-15  2.78526E+02  1.41717E-06  3.1E-05
  5.000E-02  1.90386E-07  7.79655E-15  2.78420E+02  1.49200E-06  3.0E-05
  5.250E-02  2.09900E-07  7.79345E-15  2.78309E+02  1.56686E-06  3.0E-05
  5.500E-02  2.30367E-07  7.79021E-15  2.78193E+02  1.64176E-06  3.0E-05
  5.750E-02  2.51785E-07  7.78682E-15  2.78072E+02  1.71670E-06  2.9E-05
  6.000E-02  2.74156E-07  7.78329E-15  2.77946E+02  1.79169E-06  2.9E-05
  6.250E-02  2.97478E-07  7.77961E-15  2.77815E+02  1.86671E-06  2.9E-05
  6.500E-02  3.21752E-07  7.77580E-15  2.77679E+02  1.94178E-06  2.8E-05
  6.750E-02  3.46978E-07  7.77184E-15  2.77537E+02  2.01690E-06  2.8E-05
  7.000E-02  3.73156E-07  7.76774E-15  2.77391E+02  2.09207E-06  2.7E-05
  7.250E-02  4.00286E-07  7.76351E-15  2.77240E+02  2.16728E-06  2.7E-05
  7.500E-02  4.28368E-07  7.75914E-15  2.77084E+02  2.24255E-06  2.7E-05
  7.750E-02  4.57402E-07  7.75463E-15  2.76923E+02  2.31787E-06  2.6E-05
  8.000E-02  4.87388E-07  7.74999E-15  2.76757E+02  2.39325E-06  2.6E-05
  8.250E-02  5.18325E-07  7.74521E-15  2.76587E+02  2.46868E-06  2.5E-05
  8.500E-02  5.50215E-07  7.74031E-15  2.76411E+02  2.54418E-06  2.5E-05
  8.750E-02  5.83057E-07  7.73527E-15  2.76231E+02  2.61973E-06  2.4E-05
  9.000E-02  6.16850E-07  7.73010E-15  2.76047E+02  2.69534E-06  2.4E-05
  9.250E-02  6.51596E-07  7.72480E-15  2.75858E+02  2.77102E-06  2.3E-05
  9.500E-02  6.87293E-07  7.71938E-15  2.75664E+02  2.84676E-06  2.3E-05
  9.750E-02  7.23942E-07  7.71383E-15  2.75466E+02  2.92257E-06  2.2E-05
  1.000E-01  7.61543E-07  7.70815E-15  2.75263E+02  2.99845E-06  2.2E-05
  1.250E-01  1.18991E-06  7.64490E-15  2.73004E+02  3.76130E-06  1.6E-05
  1.500E-01  1.71347E-06  7.57095E-15  2.70363E+02  4.53256E-06  9.5E-06
  1.750E-01  2.33223E-06  7.48803E-15  2.67402E+02  5.31351E-06  3.3E-06
  2.000E-01  3.04617E-06  7.39800E-15  2.64187E+02  6.10523E-06  2.4E-06
  2.250E-01  3.85531E-06  7.30269E-15  2.60784E+02  6.90863E-06  7.3E-06
  2.500E-01  4.75964E-06  7.20392E-15  2.57257E+02  7.72435E-06  1.1E-05
  2.750E-01  5.75916E-06  7.10336E-15  2.53666E+02  8.55287E-06  1.3E-05
  3.000E-01  6.85388E-06  7.00251E-15  2.50064E+02  9.39443E-06  1.4E-05
  3.250E-01  8.04378E-06  6.90266E-15  2.46498E+02  1.02491E-05  1.4E-05
  3.500E-01  9.32888E-06  6.80484E-15  2.43005E+02  1.11168E-05  1.2E-05
  3.750E-01  1.07092E-05  6.70987E-15  2.39614E+02  1.19972E-05  9.1E-06
  4.000E-01  1.21846E-05  6.61828E-15  2.36343E+02  1.28899E-05  5.5E-06
  4.250E-01  1.37553E-05  6.53042E-15  2.33205E+02  1.37945E-05  1.5E-06
  4.500E-01  1.54212E-05  6.44639E-15  2.30205E+02  1.47106E-05  2.4E-06
  4.750E-01  1.71822E-05  6.36613E-15  2.27339E+02  1.56374E-05  6.0E-06
  5.000E-01  1.90385E-05  6.28947E-15  2.24601E+02  1.65745E-05  8.8E-06
  5.250E-01  2.09899E-05  6.21609E-15  2.21981E+02  1.75214E-05  1.1E-05
  5.500E-01  2.30365E-05  6.14565E-15  2.19465E+02  1.84777E-05  1.1E-05
  5.750E-01  2.51783E-05  6.07775E-15  2.17040E+02  1.94429E-05  1.1E-05
  6.000E-01  2.74153E-05  6.01202E-15  2.14693E+02  2.04168E-05  9.5E-06
  6.250E-01  2.97475E-05  5.94810E-15  2.12410E+02  2.13992E-05  7.1E-06
  6.500E-01  3.21749E-05  5.88568E-15  2.10181E+02  2.23899E-05  4.1E-06
  6.750E-01  3.46974E-05  5.82451E-15  2.07997E+02  2.33889E-05  8.1E-07
  7.000E-01  3.73152E-05  5.76443E-15  2.05852E+02  2.43962E-05  2.5E-06
  7.250E-01  4.00281E-05  5.70532E-15  2.03741E+02  2.54118E-05  5.5E-06
  7.500E-01  4.28362E-05  5.64712E-15  2.01662E+02  2.64359E-05  7.9E-06
  7.750E-01  4.57395E-05  5.58984E-15  1.99617E+02  2.74683E-05  9.4E-06
  8.000E-01  4.87380E-05  5.53352E-15  1.97606E+02  2.85093E-05  1.0E-05
  8.250E-01  5.18317E-05  5.47823E-15  1.95631E+02  2.95589E-05  9.6E-06
  8.500E-01  5.50205E-05  5.42404E-15  1.93696E+02  3.06171E-05  8.2E-06
  8.750E-01  5.83045E-05  5.37104E-15  1.91803E+02  3.16839E-05  6.1E-06
  9.000E-01  6.16838E-05  5.31928E-15  1.89955E+02  3.27592E-05  3.3E-06
  9.250E-01  6.51582E-05  5.26880E-15  1.88152E+02  3.38430E-05  3.5E-07
  9.500E-01  6.87277E-05  5.21963E-15  1.86396E+02  3.49351E-05  2.6E-06
  9.750E-01  7.23925E-05  5.17174E-15  1.84686E+02  3.60355E-05  5.3E-06
  1.000E+00  7.61524E-05  5.12509E-15  1.83020E+02  3.71439E-05  7.4E-06
  1.100E+00  9.21439E-05  4.94931E-15  1.76743E+02  4.16555E-05  7.4E-06
  1.200E+00  1.09658E-04  4.78616E-15  1.70917E+02  4.62871E-05  2.8E-06
  1.300E+00  1.28695E-04  4.63133E-15  1.65388E+02  5.10385E-05  8.6E-06
  1.400E+00  1.49255E-04  4.48443E-15  1.60142E+02  5.59144E-05  2.3E-06
  1.500E+00  1.71338E-04  4.34645E-15  1.55215E+02  6.09183E-05  6.9E-06
  1.600E+00  1.94942E-04  4.21663E-15  1.50579E+02  6.60504E-05  6.2E-06
  1.700E+00  2.20070E-04  4.09258E-15  1.46149E+02  7.13101E-05  3.0E-06
  1.800E+00  2.46720E-04  3.97250E-15  1.41861E+02  7.67011E-05  7.8E-06
  1.900E+00  2.74892E-04  3.85634E-15  1.37712E+02  8.22303E-05  1.6E-06
  2.000E+00  3.04586E-04  3.74466E-15  1.33724E+02  8.79046E-05  6.7E-06
  2.100E+00  3.35803E-04  3.63717E-15  1.29886E+02  9.37273E-05  5.5E-06
  2.200E+00  3.68542E-04  3.53275E-15  1.26157E+02  9.97006E-05  3.4E-06
  2.300E+00  4.02802E-04  3.43059E-15  1.22509E+02  1.05829E-04  7.4E-06
  2.400E+00  4.38585E-04  3.33083E-15  1.18946E+02  1.12122E-04  1.0E-06
  2.500E+00  4.75889E-04  3.23388E-15  1.15484E+02  1.18585E-04  6.7E-06
  2.600E+00  5.14715E-04  3.13961E-15  1.12118E+02  1.25225E-04  4.9E-06
  2.700E+00  5.55063E-04  3.04745E-15  1.08827E+02  1.32043E-04  3.7E-06
  2.800E+00  5.96931E-04  2.95704E-15  1.05598E+02  1.39045E-04  7.1E-06
  2.900E+00  6.40321E-04  2.86855E-15  1.02438E+02  1.46239E-04  4.8E-07
  3.000E+00  6.85233E-04  2.78229E-15  9.93573E+01  1.53632E-04  6.8E-06
  3.100E+00  7.31665E-04  2.69820E-15  9.63545E+01  1.61229E-04  4.5E-06
  3.200E+00  7.79618E-04  2.61595E-15  9.34174E+01  1.69032E-04  4.1E-06
  3.300E+00  8.29092E-04  2.53538E-15  9.05399E+01  1.77045E-04  6.9E-06
  3.400E+00  8.80086E-04  2.45663E-15  8.77279E+01  1.85275E-04  1.0E-07
  3.500E+00  9.32601E-04  2.37993E-15  8.49890E+01  1.93729E-04  7.0E-06
  3.600E+00  9.86636E-04  2.30524E-15  8.23217E+01  2.02412E-04  4.1E-06
  3.700E+00  1.04219E-03  2.23234E-15  7.97183E+01  2.11322E-04  4.6E-06
  3.800E+00  1.09927E-03  2.16113E-15  7.71755E+01  2.20463E-04  6.8E-06
  3.900E+00  1.15786E-03  2.09174E-15  7.46975E+01  2.29842E-04  5.6E-07
  4.000E+00  1.21797E-03  2.02430E-15  7.22889E+01  2.39464E-04  7.2E-06
  4.100E+00  1.27961E-03  1.95875E-15  6.99482E+01  2.49331E-04  3.7E-06
  4.200E+00  1.34276E-03  1.89494E-15  6.76697E+01  2.59441E-04  5.1E-06
  4.300E+00  1.40743E-03  1.83282E-15  6.54513E+01  2.69796E-04  6.7E-06
  4.400E+00  1.47362E-03  1.77246E-15  6.32958E+01  2.80399E-04  1.1E-06
  4.500E+00  1.54133E-03  1.71394E-15  6.12058E+01  2.91256E-04  7.5E-06
  4.600E+00  1.61056E-03  1.65719E-15  5.91793E+01  3.02365E-04  3.3E-06
  4.700E+00  1.68131E-03  1.60209E-15  5.72118E+01  3.13724E-04  5.6E-06
  4.800E+00  1.75357E-03  1.54860E-15  5.53016E+01  3.25329E-04  6.7E-06
  4.900E+00  1.82735E-03  1.49676E-15  5.34502E+01  3.37184E-04  1.7E-06
  5.000E+00  1.90265E-03  1.44659E-15  5.16587E+01  3.49293E-04  7.8E-06
  5.100E+00  1.97947E-03  1.39804E-15  4.99250E+01  3.61652E-04  2.9E-06
  5.200E+00  2.05780E-03  1.35101E-15  4.82453E+01  3.74252E-04  6.1E-06
  5.300E+00  2.13765E-03  1.30544E-15  4.66182E+01  3.87089E-04  6.6E-06
  5.400E+00  2.21902E-03  1.26137E-15  4.50443E+01  4.00166E-04  2.3E-06
  5.500E+00  2.30190E-03  1.21879E-15  4.35239E+01  4.13483E-04  8.1E-06
  5.600E+00  2.38630E-03  1.17765E-15  4.20546E+01  4.27032E-04  2.5E-06
  5.700E+00  2.47222E-03  1.13785E-15  4.06335E+01  4.40802E-04  6.7E-06
  5.800E+00  2.55965E-03  1.09937E-15  3.92593E+01  4.54784E-04  6.5E-06
  5.900E+00  2.64859E-03  1.06220E-15  3.79319E+01  4.68979E-04  2.9E-06
  6.000E+00  2.73905E-03  1.02633E-15  3.66510E+01  4.83385E-04  8.4E-06
  6.100E+00  2.83103E-03  9.91709E-16  3.54146E+01  4.97991E-04  2.0E-06
  6.200E+00  2.92452E-03  9.58261E-16  3.42201E+01  5.12779E-04  7.3E-06
  6.300E+00  3.01952E-03  9.25953E-16  3.30664E+01  5.27737E-04  6.4E-06
  6.400E+00  3.11604E-03  8.94780E-16  3.19532E+01  5.42864E-04  3.6E-06
  6.500E+00  3.21407E-03  8.64721E-16  3.08798E+01  5.58157E-04  8.7E-06
  6.600E+00  3.31362E-03  8.35726E-16  2.98443E+01  5.73596E-04  1.5E-06
  6.700E+00  3.41468E-03  8.07738E-16  2.88448E+01  5.89159E-04  8.0E-06
  6.800E+00  3.51725E-03  7.80726E-16  2.78802E+01  6.04829E-04  6.3E-06
  6.900E+00  3.62133E-03  7.54680E-16  2.69501E+01  6.20605E-04  4.4E-06
  7.000E+00  3.72692E-03  7.29576E-16  2.60536E+01  6.36480E-04  9.0E-06
  7.100E+00  3.83403E-03  7.05371E-16  2.51892E+01  6.52427E-04  9.2E-07
  7.200E+00  3.94265E-03  6.82018E-16  2.43553E+01  6.68416E-04  8.6E-06
  7.300E+00  4.05278E-03  6.59491E-16  2.35509E+01  6.84427E-04  6.1E-06
  7.400E+00  4.16442E-03  6.37778E-16  2.27755E+01  7.00458E-04  5.2E-06
  7.500E+00  4.27757E-03  6.16854E-16  2.20283E+01  7.16498E-04  9.3E-06
  7.600E+00  4.39223E-03  5.96683E-16  2.13079E+01  7.32512E-04  2.8E-07
  7.700E+00  4.50840E-03  5.77228E-16  2.06132E+01  7.48461E-04  9.3E-06
  7.800E+00  4.62608E-03  5.58468E-16  1.99432E+01  7.64322E-04  5.8E-06
  7.900E+00  4.74527E-03  5.40387E-16  1.92976E+01  7.80093E-04  6.0E-06
  8.000E+00  4.86597E-03  5.22964E-16  1.86754E+01  7.95756E-04  9.5E-06
  8.100E+00  4.98817E-03  5.06168E-16  1.80756E+01  8.11270E-04  4.3E-07
  8.200E+00  5.11188E-03  4.89971E-16  1.74972E+01  8.26585E-04  1.0E-05
  8.300E+00  5.23711E-03  4.74354E-16  1.69395E+01  8.41677E-04  5.5E-06
  8.400E+00  5.36383E-03  4.59303E-16  1.64020E+01  8.56542E-04  6.9E-06
  8.500E+00  5.49207E-03  4.44797E-16  1.58840E+01  8.71158E-04  9.7E-06
  8.600E+00  5.62181E-03  4.30812E-16  1.53846E+01  8.85474E-04  1.2E-06
  8.700E+00  5.75306E-03  4.17327E-16  1.49030E+01  8.99429E-04  1.1E-05
  8.800E+00  5.88581E-03  4.04324E-16  1.44387E+01  9.12999E-04  5.1E-06
  8.900E+00  6.02007E-03  3.91790E-16  1.39911E+01  9.26180E-04  7.8E-06
  9.000E+00  6.15583E-03  3.79707E-16  1.35596E+01  9.38947E-04  9.9E-06
  9.100E+00  6.29310E-03  3.68057E-16  1.31436E+01  9.51234E-04  2.1E-06
  9.200E+00  6.43187E-03  3.56822E-16  1.27423E+01  9.62974E-04  1.1E-05
  9.300E+00  6.57214E-03  3.45988E-16  1.23555E+01  9.74142E-04  4.6E-06
  9.400E+00  6.71392E-03  3.35542E-16  1.19824E+01  9.84736E-04  8.7E-06
  9.500E+00  6.85720E-03  3.25469E-16  1.16227E+01  9.94726E-04  1.0E-05
  9.600E+00  7.00198E-03  3.15754E-16  1.12758E+01  1.00403E-03  3.0E-06
  9.700E+00  7.14827E-03  3.06383E-16  1.09411E+01  1.01259E-03  1.2E-05
  9.800E+00  7.29605E-03  2.97346E-16  1.06184E+01  1.02036E-03  4.1E-06
  9.900E+00  7.44534E-03  2.88629E-16  1.03071E+01  1.02735E-03  9.7E-06
  1.000E+01  7.59612E-03  2.80220E-16  1.00068E+01  1.03353E-03  1.0E-05
  1.025E+01  7.97965E-03  2.60472E-16  9.30164E+00  1.04487E-03  9.9E-06
  1.050E+01  8.37255E-03  2.42414E-16  8.65675E+00  1.04996E-03  9.9E-06
  1.075E+01  8.77480E-03  2.25893E-16  8.06677E+00  1.04799E-03  9.8E-06
  1.100E+01  9.18641E-03  2.10768E-16  7.52666E+00  1.03834E-03  9.7E-06
  1.125E+01  9.60736E-03  1.96917E-16  7.03202E+00  1.02019E-03  9.5E-06
  1.150E+01  1.00376E-02  1.84220E-16  6.57862E+00  9.92987E-04  9.4E-06
  1.175E+01  1.04773E-02  1.72579E-16  6.16289E+00  9.55895E-04  9.2E-06
  1.200E+01  1.09262E-02  1.61892E-16  5.78126E+00  9.08453E-04  9.0E-06
  1.225E+01  1.13844E-02  1.52080E-16  5.43086E+00  8.49870E-04  8.7E-06
  1.250E+01  1.18520E-02  1.43057E-16  5.10865E+00  7.79811E-04  8.5E-06
  1.275E+01  1.23288E-02  1.34759E-16  4.81234E+00  6.97552E-04  8.2E-06
  1.300E+01  1.28150E-02  1.27115E-16  4.53935E+00  6.02913E-04  7.8E-06
  1.325E+01  1.33104E-02  1.20073E-16  4.28787E+00  4.95270E-04  7.5E-06
  1.350E+01  1.38150E-02  1.13570E-16  4.05567E+00  3.74608E-04  7.1E-06
  1.375E+01  1.43290E-02  1.07569E-16  3.84135E+00  2.40430E-04  6.7E-06
  1.400E+01  1.48521E-02  1.02014E-16  3.64299E+00  9.28862E-05  6.3E-06
  1.425E+01  1.53845E-02  9.68760E-17  3.45951E+00 -6.83772E-05  5.8E-06
  1.450E+01  1.59262E-02  9.21079E-17  3.28923E+00 -2.43055E-04  5.3E-06
  1.475E+01  1.64770E-02  8.76872E-17  3.13137E+00 -4.31348E-04  4.8E-06
  1.500E+01  1.70371E-02  8.35732E-17  2.98445E+00 -6.32822E-04  4.3E-06
