 #
 # Subroutine ELSEPA. Elastic scattering of electrons and positrons
 #                    by neutral atoms and positive ions
 #
 # Projectile: electron
 # Kinetic energy = 1.50000E+02 eV = 5.51240E+00 a.u.
 #
 # Element: Hg,  Z =  80,  atomic weight = 2.00590E+02 g/mol
 #
 # Nuclear model: Fermi distribution
 #                Average radius = 6.26355E-13 cm
 #                Skin thickness = 5.46000E-14 cm
 #
 # Number of electrons = 80
 #
 # Electron density: Read from file z_080.den   
 #                   Number of data points =  763
 #                   Volume integral = 8.00000E+01
 #
 # Riley-Truhlar exchange potential
 #
 # Correlation-polarization potential (Buckingham):
 #                           Alpha = 5.10000E-24 cm**3
 #                            Bpol = 2.50000E+00
 #
 # Total elastic cross section = 1.01679E-15 cm**2 = 3.63103E+01 a0**2
 # 1st transport cross section = 1.49548E-16 cm**2 = 5.34046E+00 a0**2
 # 2nd transport cross section = 2.89319E-16 cm**2 = 1.03318E+01 a0**2
 #
 #
 # Differential cross section:                       MU=(1-COS(THETA))/2
 #
 #  THETA        MU          DCS          DCS        Sherman      error
 #  (deg)                 (cm**2/sr)   (a0**2/sr)    function
 #----------------------------------------------------------------------
  0.000E+00  0.00000E+00  6.79381E-15  2.42611E+02  0.00000E+00  6.8E-07
  1.000E-04  7.61557E-13  6.79381E-15  2.42611E+02  2.94435E-10  6.8E-07
  1.250E-04  1.18994E-12  6.79381E-15  2.42611E+02  3.68044E-10  6.8E-07
  1.500E-04  1.71346E-12  6.79381E-15  2.42611E+02  4.41653E-10  6.8E-07
  1.750E-04  2.33225E-12  6.79381E-15  2.42611E+02  5.15262E-10  6.8E-07
  2.000E-04  3.04617E-12  6.79381E-15  2.42611E+02  5.88871E-10  6.8E-07
  2.250E-04  3.85530E-12  6.79381E-15  2.42611E+02  6.62479E-10  6.8E-07
  2.500E-04  4.75964E-12  6.79381E-15  2.42611E+02  7.36088E-10  6.8E-07
  2.750E-04  5.75917E-12  6.79381E-15  2.42611E+02  8.09697E-10  6.8E-07
  3.000E-04  6.85391E-12  6.79381E-15  2.42611E+02  8.83306E-10  6.8E-07
  3.250E-04  8.04379E-12  6.79381E-15  2.42611E+02  9.56915E-10  6.8E-07
  3.500E-04  9.32893E-12  6.79381E-15  2.42611E+02  1.03052E-09  6.8E-07
  3.750E-04  1.07092E-11  6.79381E-15  2.42611E+02  1.10413E-09  6.8E-07
  4.000E-04  1.21847E-11  6.79381E-15  2.42611E+02  1.17774E-09  6.8E-07
  4.250E-04  1.37554E-11  6.79381E-15  2.42611E+02  1.25135E-09  6.8E-07
  4.500E-04  1.54213E-11  6.79381E-15  2.42611E+02  1.32496E-09  6.8E-07
  4.750E-04  1.71823E-11  6.79381E-15  2.42611E+02  1.39857E-09  6.8E-07
  5.000E-04  1.90386E-11  6.79381E-15  2.42611E+02  1.47218E-09  6.8E-07
  5.250E-04  2.09900E-11  6.79381E-15  2.42611E+02  1.54579E-09  6.8E-07
  5.500E-04  2.30367E-11  6.79381E-15  2.42611E+02  1.61940E-09  6.8E-07
  5.750E-04  2.51785E-11  6.79381E-15  2.42611E+02  1.69301E-09  6.8E-07
  6.000E-04  2.74156E-11  6.79381E-15  2.42611E+02  1.76661E-09  6.8E-07
  6.250E-04  2.97478E-11  6.79381E-15  2.42611E+02  1.84022E-09  6.8E-07
  6.500E-04  3.21752E-11  6.79381E-15  2.42611E+02  1.91383E-09  6.8E-07
  6.750E-04  3.46979E-11  6.79381E-15  2.42611E+02  1.98744E-09  6.8E-07
  7.000E-04  3.73157E-11  6.79381E-15  2.42611E+02  2.06105E-09  6.8E-07
  7.250E-04  4.00286E-11  6.79381E-15  2.42611E+02  2.13466E-09  6.8E-07
  7.500E-04  4.28368E-11  6.79381E-15  2.42611E+02  2.20827E-09  6.8E-07
  7.750E-04  4.57402E-11  6.79381E-15  2.42611E+02  2.28188E-09  6.8E-07
  8.000E-04  4.87388E-11  6.79381E-15  2.42611E+02  2.35549E-09  6.8E-07
  8.250E-04  5.18325E-11  6.79381E-15  2.42611E+02  2.42910E-09  6.8E-07
  8.500E-04  5.50215E-11  6.79381E-15  2.42611E+02  2.50271E-09  6.8E-07
  8.750E-04  5.83057E-11  6.79381E-15  2.42611E+02  2.57632E-09  6.8E-07
  9.000E-04  6.16850E-11  6.79381E-15  2.42611E+02  2.64993E-09  6.8E-07
  9.250E-04  6.51595E-11  6.79381E-15  2.42611E+02  2.72354E-09  6.8E-07
  9.500E-04  6.87293E-11  6.79381E-15  2.42611E+02  2.79715E-09  6.8E-07
  9.750E-04  7.23943E-11  6.79381E-15  2.42611E+02  2.87076E-09  6.8E-07
  1.000E-03  7.61544E-11  6.79381E-15  2.42611E+02  2.94437E-09  6.8E-07
  1.250E-03  1.18991E-10  6.79381E-15  2.42611E+02  3.68047E-09  6.8E-07
  1.500E-03  1.71347E-10  6.79381E-15  2.42611E+02  4.41658E-09  6.8E-07
  1.750E-03  2.33223E-10  6.79380E-15  2.42611E+02  5.15270E-09  6.8E-07
  2.000E-03  3.04617E-10  6.79380E-15  2.42611E+02  5.88884E-09  6.8E-07
  2.250E-03  3.85531E-10  6.79380E-15  2.42611E+02  6.62498E-09  6.8E-07
  2.500E-03  4.75965E-10  6.79380E-15  2.42611E+02  7.36114E-09  6.8E-07
  2.750E-03  5.75917E-10  6.79380E-15  2.42611E+02  8.09731E-09  6.8E-07
  3.000E-03  6.85389E-10  6.79380E-15  2.42611E+02  8.83350E-09  6.8E-07
  3.250E-03  8.04380E-10  6.79380E-15  2.42611E+02  9.56971E-09  6.8E-07
  3.500E-03  9.32891E-10  6.79380E-15  2.42611E+02  1.03059E-08  6.8E-07
  3.750E-03  1.07092E-09  6.79380E-15  2.42611E+02  1.10422E-08  6.8E-07
  4.000E-03  1.21847E-09  6.79380E-15  2.42611E+02  1.17785E-08  6.8E-07
  4.250E-03  1.37554E-09  6.79379E-15  2.42611E+02  1.25148E-08  6.8E-07
  4.500E-03  1.54213E-09  6.79379E-15  2.42611E+02  1.32511E-08  6.8E-07
  4.750E-03  1.71823E-09  6.79379E-15  2.42611E+02  1.39874E-08  6.8E-07
  5.000E-03  1.90386E-09  6.79379E-15  2.42611E+02  1.47238E-08  6.8E-07
  5.250E-03  2.09900E-09  6.79379E-15  2.42611E+02  1.54602E-08  6.8E-07
  5.500E-03  2.30367E-09  6.79379E-15  2.42611E+02  1.61967E-08  6.8E-07
  5.750E-03  2.51785E-09  6.79378E-15  2.42610E+02  1.69331E-08  6.8E-07
  6.000E-03  2.74156E-09  6.79378E-15  2.42610E+02  1.76696E-08  6.8E-07
  6.250E-03  2.97478E-09  6.79378E-15  2.42610E+02  1.84062E-08  6.8E-07
  6.500E-03  3.21752E-09  6.79378E-15  2.42610E+02  1.91428E-08  6.8E-07
  6.750E-03  3.46978E-09  6.79378E-15  2.42610E+02  1.98794E-08  6.8E-07
  7.000E-03  3.73156E-09  6.79377E-15  2.42610E+02  2.06161E-08  6.8E-07
  7.250E-03  4.00286E-09  6.79377E-15  2.42610E+02  2.13528E-08  6.8E-07
  7.500E-03  4.28368E-09  6.79377E-15  2.42610E+02  2.20895E-08  6.8E-07
  7.750E-03  4.57402E-09  6.79377E-15  2.42610E+02  2.28263E-08  6.8E-07
  8.000E-03  4.87388E-09  6.79376E-15  2.42610E+02  2.35632E-08  6.8E-07
  8.250E-03  5.18326E-09  6.79376E-15  2.42610E+02  2.43001E-08  6.8E-07
  8.500E-03  5.50215E-09  6.79376E-15  2.42610E+02  2.50370E-08  6.8E-07
  8.750E-03  5.83057E-09  6.79376E-15  2.42609E+02  2.57740E-08  6.8E-07
  9.000E-03  6.16850E-09  6.79375E-15  2.42609E+02  2.65111E-08  6.8E-07
  9.250E-03  6.51596E-09  6.79375E-15  2.42609E+02  2.72482E-08  6.8E-07
  9.500E-03  6.87293E-09  6.79375E-15  2.42609E+02  2.79854E-08  6.8E-07
  9.750E-03  7.23942E-09  6.79374E-15  2.42609E+02  2.87226E-08  6.8E-07
  1.000E-02  7.61544E-09  6.79374E-15  2.42609E+02  2.94599E-08  6.8E-07
  1.250E-02  1.18991E-08  6.79370E-15  2.42608E+02  3.68363E-08  6.8E-07
  1.500E-02  1.71347E-08  6.79366E-15  2.42606E+02  4.42205E-08  6.8E-07
  1.750E-02  2.33223E-08  6.79360E-15  2.42604E+02  5.16138E-08  6.8E-07
  2.000E-02  3.04617E-08  6.79354E-15  2.42602E+02  5.90179E-08  6.8E-07
  2.250E-02  3.85531E-08  6.79347E-15  2.42599E+02  6.64342E-08  6.8E-07
  2.500E-02  4.75965E-08  6.79339E-15  2.42596E+02  7.38643E-08  6.8E-07
  2.750E-02  5.75917E-08  6.79330E-15  2.42593E+02  8.13098E-08  6.8E-07
  3.000E-02  6.85389E-08  6.79320E-15  2.42590E+02  8.87721E-08  6.8E-07
  3.250E-02  8.04380E-08  6.79310E-15  2.42586E+02  9.62528E-08  6.8E-07
  3.500E-02  9.32891E-08  6.79299E-15  2.42582E+02  1.03753E-07  6.8E-07
  3.750E-02  1.07092E-07  6.79287E-15  2.42578E+02  1.11276E-07  6.8E-07
  4.000E-02  1.21847E-07  6.79274E-15  2.42573E+02  1.18821E-07  6.8E-07
  4.250E-02  1.37554E-07  6.79260E-15  2.42568E+02  1.26390E-07  6.8E-07
  4.500E-02  1.54213E-07  6.79245E-15  2.42563E+02  1.33986E-07  6.8E-07
  4.750E-02  1.71823E-07  6.79230E-15  2.42557E+02  1.41609E-07  6.8E-07
  5.000E-02  1.90386E-07  6.79213E-15  2.42551E+02  1.49262E-07  6.8E-07
  5.250E-02  2.09900E-07  6.79196E-15  2.42545E+02  1.56945E-07  6.8E-07
  5.500E-02  2.30367E-07  6.79178E-15  2.42539E+02  1.64660E-07  6.8E-07
  5.750E-02  2.51785E-07  6.79159E-15  2.42532E+02  1.72409E-07  6.8E-07
  6.000E-02  2.74156E-07  6.79140E-15  2.42525E+02  1.80193E-07  6.8E-07
  6.250E-02  2.97478E-07  6.79119E-15  2.42518E+02  1.88014E-07  6.8E-07
  6.500E-02  3.21752E-07  6.79098E-15  2.42510E+02  1.95873E-07  6.8E-07
  6.750E-02  3.46978E-07  6.79076E-15  2.42502E+02  2.03772E-07  6.7E-07
  7.000E-02  3.73156E-07  6.79053E-15  2.42494E+02  2.11712E-07  6.7E-07
  7.250E-02  4.00286E-07  6.79029E-15  2.42486E+02  2.19695E-07  6.7E-07
  7.500E-02  4.28368E-07  6.79004E-15  2.42477E+02  2.27723E-07  6.7E-07
  7.750E-02  4.57402E-07  6.78979E-15  2.42468E+02  2.35797E-07  6.7E-07
  8.000E-02  4.87388E-07  6.78953E-15  2.42458E+02  2.43918E-07  6.7E-07
  8.250E-02  5.18325E-07  6.78926E-15  2.42449E+02  2.52088E-07  6.7E-07
  8.500E-02  5.50215E-07  6.78898E-15  2.42439E+02  2.60308E-07  6.7E-07
  8.750E-02  5.83057E-07  6.78869E-15  2.42428E+02  2.68581E-07  6.7E-07
  9.000E-02  6.16850E-07  6.78839E-15  2.42418E+02  2.76907E-07  6.7E-07
  9.250E-02  6.51596E-07  6.78809E-15  2.42407E+02  2.85288E-07  6.7E-07
  9.500E-02  6.87293E-07  6.78778E-15  2.42396E+02  2.93726E-07  6.7E-07
  9.750E-02  7.23942E-07  6.78745E-15  2.42384E+02  3.02222E-07  6.7E-07
  1.000E-01  7.61543E-07  6.78712E-15  2.42373E+02  3.10777E-07  6.6E-07
  1.250E-01  1.18991E-06  6.78338E-15  2.42239E+02  3.99947E-07  6.6E-07
  1.500E-01  1.71347E-06  6.77881E-15  2.42076E+02  4.96750E-07  6.4E-07
  1.750E-01  2.33223E-06  6.77343E-15  2.41884E+02  6.02697E-07  6.3E-07
  2.000E-01  3.04617E-06  6.76725E-15  2.41663E+02  7.19286E-07  6.1E-07
  2.250E-01  3.85531E-06  6.76027E-15  2.41414E+02  8.48007E-07  5.9E-07
  2.500E-01  4.75964E-06  6.75250E-15  2.41136E+02  9.90337E-07  5.8E-07
  2.750E-01  5.75916E-06  6.74397E-15  2.40831E+02  1.14774E-06  5.5E-07
  3.000E-01  6.85388E-06  6.73467E-15  2.40500E+02  1.32166E-06  5.3E-07
  3.250E-01  8.04378E-06  6.72463E-15  2.40141E+02  1.51352E-06  5.1E-07
  3.500E-01  9.32888E-06  6.71386E-15  2.39756E+02  1.72474E-06  4.8E-07
  3.750E-01  1.07092E-05  6.70237E-15  2.39346E+02  1.95671E-06  4.5E-07
  4.000E-01  1.21846E-05  6.69019E-15  2.38911E+02  2.21079E-06  4.2E-07
  4.250E-01  1.37553E-05  6.67733E-15  2.38452E+02  2.48832E-06  3.9E-07
  4.500E-01  1.54212E-05  6.66381E-15  2.37969E+02  2.79063E-06  3.6E-07
  4.750E-01  1.71822E-05  6.64965E-15  2.37463E+02  3.11900E-06  3.3E-07
  5.000E-01  1.90385E-05  6.63487E-15  2.36935E+02  3.47470E-06  3.0E-07
  5.250E-01  2.09899E-05  6.61949E-15  2.36386E+02  3.85896E-06  2.7E-07
  5.500E-01  2.30365E-05  6.60353E-15  2.35816E+02  4.27296E-06  2.4E-07
  5.750E-01  2.51783E-05  6.58701E-15  2.35227E+02  4.71789E-06  2.0E-07
  6.000E-01  2.74153E-05  6.56996E-15  2.34618E+02  5.19487E-06  1.7E-07
  6.250E-01  2.97475E-05  6.55240E-15  2.33991E+02  5.70499E-06  1.4E-07
  6.500E-01  3.21749E-05  6.53436E-15  2.33346E+02  6.24931E-06  1.1E-07
  6.750E-01  3.46974E-05  6.51584E-15  2.32685E+02  6.82884E-06  1.0E-07
  7.000E-01  3.73152E-05  6.49689E-15  2.32008E+02  7.44457E-06  1.0E-07
  7.250E-01  4.00281E-05  6.47752E-15  2.31316E+02  8.09742E-06  1.0E-07
  7.500E-01  4.28362E-05  6.45775E-15  2.30611E+02  8.78829E-06  1.0E-07
  7.750E-01  4.57395E-05  6.43762E-15  2.29892E+02  9.51802E-06  1.0E-07
  8.000E-01  4.87380E-05  6.41714E-15  2.29160E+02  1.02874E-05  1.0E-07
  8.250E-01  5.18317E-05  6.39633E-15  2.28417E+02  1.10972E-05  1.0E-07
  8.500E-01  5.50205E-05  6.37523E-15  2.27664E+02  1.19482E-05  1.2E-07
  8.750E-01  5.83045E-05  6.35385E-15  2.26900E+02  1.28409E-05  1.5E-07
  9.000E-01  6.16838E-05  6.33222E-15  2.26128E+02  1.37761E-05  1.7E-07
  9.250E-01  6.51582E-05  6.31035E-15  2.25347E+02  1.47542E-05  1.9E-07
  9.500E-01  6.87277E-05  6.28828E-15  2.24559E+02  1.57758E-05  2.1E-07
  9.750E-01  7.23925E-05  6.26602E-15  2.23764E+02  1.68414E-05  2.3E-07
  1.000E+00  7.61524E-05  6.24360E-15  2.22963E+02  1.79514E-05  2.4E-07
  1.100E+00  9.21439E-05  6.15265E-15  2.19715E+02  2.28420E-05  2.8E-07
  1.200E+00  1.09658E-04  6.06062E-15  2.16429E+02  2.84647E-05  2.9E-07
  1.300E+00  1.28695E-04  5.96858E-15  2.13142E+02  3.48253E-05  2.7E-07
  1.400E+00  1.49255E-04  5.87740E-15  2.09886E+02  4.19201E-05  2.2E-07
  1.500E+00  1.71338E-04  5.78779E-15  2.06686E+02  4.97386E-05  1.5E-07
  1.600E+00  1.94942E-04  5.70024E-15  2.03559E+02  5.82655E-05  1.0E-07
  1.700E+00  2.20070E-04  5.61509E-15  2.00518E+02  6.74841E-05  1.0E-07
  1.800E+00  2.46720E-04  5.53249E-15  1.97569E+02  7.73789E-05  1.0E-07
  1.900E+00  2.74892E-04  5.45247E-15  1.94711E+02  8.79385E-05  1.6E-07
  2.000E+00  3.04586E-04  5.37495E-15  1.91943E+02  9.91572E-05  2.0E-07
  2.100E+00  3.35803E-04  5.29976E-15  1.89258E+02  1.11037E-04  2.3E-07
  2.200E+00  3.68542E-04  5.22670E-15  1.86649E+02  1.23588E-04  2.3E-07
  2.300E+00  4.02802E-04  5.15550E-15  1.84106E+02  1.36827E-04  2.1E-07
  2.400E+00  4.38585E-04  5.08592E-15  1.81621E+02  1.50781E-04  1.6E-07
  2.500E+00  4.75889E-04  5.01771E-15  1.79186E+02  1.65478E-04  1.0E-07
  2.600E+00  5.14715E-04  4.95068E-15  1.76792E+02  1.80955E-04  1.0E-07
  2.700E+00  5.55063E-04  4.88465E-15  1.74434E+02  1.97245E-04  1.0E-07
  2.800E+00  5.96931E-04  4.81949E-15  1.72107E+02  2.14385E-04  1.0E-07
  2.900E+00  6.40321E-04  4.75514E-15  1.69809E+02  2.32405E-04  1.6E-07
  3.000E+00  6.85233E-04  4.69155E-15  1.67538E+02  2.51333E-04  1.9E-07
  3.100E+00  7.31665E-04  4.62872E-15  1.65295E+02  2.71189E-04  2.1E-07
  3.200E+00  7.79618E-04  4.56669E-15  1.63079E+02  2.91988E-04  2.0E-07
  3.300E+00  8.29092E-04  4.50550E-15  1.60894E+02  3.13737E-04  1.7E-07
  3.400E+00  8.80086E-04  4.44523E-15  1.58742E+02  3.36438E-04  1.3E-07
  3.500E+00  9.32601E-04  4.38592E-15  1.56624E+02  3.60086E-04  1.0E-07
  3.600E+00  9.86636E-04  4.32765E-15  1.54543E+02  3.84674E-04  1.0E-07
  3.700E+00  1.04219E-03  4.27044E-15  1.52500E+02  4.10193E-04  1.0E-07
  3.800E+00  1.09927E-03  4.21434E-15  1.50497E+02  4.36635E-04  1.2E-07
  3.900E+00  1.15786E-03  4.15934E-15  1.48533E+02  4.63995E-04  1.6E-07
  4.000E+00  1.21797E-03  4.10543E-15  1.46608E+02  4.92270E-04  1.9E-07
  4.100E+00  1.27961E-03  4.05259E-15  1.44721E+02  5.21464E-04  1.9E-07
  4.200E+00  1.34276E-03  4.00077E-15  1.42870E+02  5.51589E-04  1.8E-07
  4.300E+00  1.40743E-03  3.94992E-15  1.41054E+02  5.82661E-04  1.5E-07
  4.400E+00  1.47362E-03  3.89998E-15  1.39271E+02  6.14701E-04  1.0E-07
  4.500E+00  1.54133E-03  3.85088E-15  1.37517E+02  6.47737E-04  1.0E-07
  4.600E+00  1.61056E-03  3.80256E-15  1.35792E+02  6.81799E-04  1.0E-07
  4.700E+00  1.68131E-03  3.75498E-15  1.34093E+02  7.16920E-04  1.0E-07
  4.800E+00  1.75357E-03  3.70808E-15  1.32418E+02  7.53130E-04  1.3E-07
  4.900E+00  1.82735E-03  3.66183E-15  1.30766E+02  7.90458E-04  1.6E-07
  5.000E+00  1.90265E-03  3.61621E-15  1.29137E+02  8.28929E-04  1.8E-07
  5.100E+00  1.97947E-03  3.57120E-15  1.27530E+02  8.68562E-04  1.8E-07
  5.200E+00  2.05780E-03  3.52681E-15  1.25945E+02  9.09371E-04  1.6E-07
  5.300E+00  2.13765E-03  3.48303E-15  1.24381E+02  9.51363E-04  1.2E-07
  5.400E+00  2.21902E-03  3.43988E-15  1.22840E+02  9.94540E-04  1.0E-07
  5.500E+00  2.30190E-03  3.39736E-15  1.21322E+02  1.03890E-03  1.0E-07
  5.600E+00  2.38630E-03  3.35549E-15  1.19827E+02  1.08443E-03  1.0E-07
  5.700E+00  2.47222E-03  3.31428E-15  1.18355E+02  1.13113E-03  1.0E-07
  5.800E+00  2.55965E-03  3.27373E-15  1.16907E+02  1.17899E-03  1.4E-07
  5.900E+00  2.64859E-03  3.23383E-15  1.15482E+02  1.22801E-03  1.7E-07
  6.000E+00  2.73905E-03  3.19459E-15  1.14081E+02  1.27818E-03  1.8E-07
  6.100E+00  2.83103E-03  3.15599E-15  1.12702E+02  1.32950E-03  1.7E-07
  6.200E+00  2.92452E-03  3.11801E-15  1.11346E+02  1.38200E-03  1.4E-07
  6.300E+00  3.01952E-03  3.08064E-15  1.10012E+02  1.43567E-03  1.0E-07
  6.400E+00  3.11604E-03  3.04383E-15  1.08697E+02  1.49055E-03  1.0E-07
  6.500E+00  3.21407E-03  3.00758E-15  1.07403E+02  1.54666E-03  1.0E-07
  6.600E+00  3.31362E-03  2.97186E-15  1.06127E+02  1.60402E-03  1.0E-07
  6.700E+00  3.41468E-03  2.93663E-15  1.04869E+02  1.66267E-03  1.1E-07
  6.800E+00  3.51725E-03  2.90189E-15  1.03628E+02  1.72264E-03  1.5E-07
  6.900E+00  3.62133E-03  2.86761E-15  1.02404E+02  1.78396E-03  1.7E-07
  7.000E+00  3.72692E-03  2.83378E-15  1.01196E+02  1.84664E-03  1.7E-07
  7.100E+00  3.83403E-03  2.80039E-15  1.00004E+02  1.91072E-03  1.6E-07
  7.200E+00  3.94265E-03  2.76744E-15  9.88272E+01  1.97619E-03  1.3E-07
  7.300E+00  4.05278E-03  2.73492E-15  9.76659E+01  2.04308E-03  1.0E-07
  7.400E+00  4.16442E-03  2.70284E-15  9.65201E+01  2.11137E-03  1.0E-07
  7.500E+00  4.27757E-03  2.67119E-15  9.53899E+01  2.18107E-03  1.0E-07
  7.600E+00  4.39223E-03  2.63997E-15  9.42752E+01  2.25217E-03  1.0E-07
  7.700E+00  4.50840E-03  2.60920E-15  9.31761E+01  2.32466E-03  1.3E-07
  7.800E+00  4.62608E-03  2.57885E-15  9.20926E+01  2.39854E-03  1.6E-07
  7.900E+00  4.74527E-03  2.54895E-15  9.10246E+01  2.47379E-03  1.7E-07
  8.000E+00  4.86597E-03  2.51947E-15  8.99719E+01  2.55042E-03  1.7E-07
  8.100E+00  4.98817E-03  2.49041E-15  8.89343E+01  2.62843E-03  1.5E-07
  8.200E+00  5.11188E-03  2.46177E-15  8.79115E+01  2.70782E-03  1.1E-07
  8.300E+00  5.23711E-03  2.43353E-15  8.69031E+01  2.78862E-03  1.0E-07
  8.400E+00  5.36383E-03  2.40569E-15  8.59087E+01  2.87083E-03  1.0E-07
  8.500E+00  5.49207E-03  2.37822E-15  8.49278E+01  2.95448E-03  1.0E-07
  8.600E+00  5.62181E-03  2.35112E-15  8.39600E+01  3.03961E-03  1.0E-07
  8.700E+00  5.75306E-03  2.32437E-15  8.30049E+01  3.12622E-03  1.4E-07
  8.800E+00  5.88581E-03  2.29797E-15  8.20620E+01  3.21436E-03  1.7E-07
  8.900E+00  6.02007E-03  2.27190E-15  8.11312E+01  3.30405E-03  1.7E-07
  9.000E+00  6.15583E-03  2.24616E-15  8.02120E+01  3.39531E-03  1.6E-07
  9.100E+00  6.29310E-03  2.22075E-15  7.93043E+01  3.48816E-03  1.3E-07
  9.200E+00  6.43187E-03  2.19565E-15  7.84079E+01  3.58261E-03  1.0E-07
  9.300E+00  6.57214E-03  2.17086E-15  7.75228E+01  3.67866E-03  1.0E-07
  9.400E+00  6.71392E-03  2.14638E-15  7.66488E+01  3.77631E-03  1.0E-07
  9.500E+00  6.85720E-03  2.12222E-15  7.57859E+01  3.87557E-03  1.0E-07
  9.600E+00  7.00198E-03  2.09837E-15  7.49341E+01  3.97642E-03  1.2E-07
  9.700E+00  7.14827E-03  2.07482E-15  7.40933E+01  4.07885E-03  1.5E-07
  9.800E+00  7.29605E-03  2.05158E-15  7.32634E+01  4.18285E-03  1.7E-07
  9.900E+00  7.44534E-03  2.02865E-15  7.24444E+01  4.28842E-03  1.7E-07
  1.000E+01  7.59612E-03  2.00602E-15  7.16361E+01  4.39555E-03  1.5E-07
  1.025E+01  7.97965E-03  1.95071E-15  6.96612E+01  4.67023E-03  1.0E-07
  1.050E+01  8.37255E-03  1.89717E-15  6.77492E+01  4.95483E-03  1.0E-07
  1.075E+01  8.77480E-03  1.84529E-15  6.58964E+01  5.24966E-03  1.7E-07
  1.100E+01  9.18641E-03  1.79497E-15  6.40994E+01  5.55509E-03  1.4E-07
  1.125E+01  9.60736E-03  1.74614E-15  6.23558E+01  5.87137E-03  1.0E-07
  1.150E+01  1.00376E-02  1.69876E-15  6.06639E+01  6.19859E-03  1.1E-07
  1.175E+01  1.04773E-02  1.65280E-15  5.90227E+01  6.53665E-03  1.7E-07
  1.200E+01  1.09262E-02  1.60823E-15  5.74309E+01  6.88539E-03  1.3E-07
  1.225E+01  1.13844E-02  1.56500E-15  5.58870E+01  7.24472E-03  1.0E-07
  1.250E+01  1.18520E-02  1.52305E-15  5.43890E+01  7.61475E-03  1.3E-07
  1.275E+01  1.23288E-02  1.48232E-15  5.29347E+01  7.99571E-03  1.8E-07
  1.300E+01  1.28150E-02  1.44277E-15  5.15221E+01  8.38790E-03  1.1E-07
  1.325E+01  1.33104E-02  1.40433E-15  5.01497E+01  8.79153E-03  1.0E-07
  1.350E+01  1.38150E-02  1.36699E-15  4.88162E+01  9.20663E-03  1.4E-07
  1.375E+01  1.43290E-02  1.33071E-15  4.75204E+01  9.63308E-03  1.8E-07
  1.400E+01  1.48521E-02  1.29545E-15  4.62613E+01  1.00707E-02  1.0E-07
  1.425E+01  1.53845E-02  1.26118E-15  4.50376E+01  1.05194E-02  1.0E-07
  1.450E+01  1.59262E-02  1.22787E-15  4.38479E+01  1.09792E-02  1.6E-07
  1.475E+01  1.64770E-02  1.19547E-15  4.26909E+01  1.14504E-02  1.7E-07
  1.500E+01  1.70371E-02  1.16395E-15  4.15653E+01  1.19330E-02  1.0E-07
