 #
 # Subroutine ELSEPA. Elastic scattering of electrons and positrons
 #                    by neutral atoms and positive ions
 #
 # Projectile: electron
 # Kinetic energy = 3.00000E+02 eV = 1.10248E+01 a.u.
 #
 # Element: Hg,  Z =  80,  atomic weight = 2.00590E+02 g/mol
 #
 # Nuclear model: Fermi distribution
 #                Average radius = 6.26355E-13 cm
 #                Skin thickness = 5.46000E-14 cm
 #
 # Number of electrons = 80
 #
 # Electron density: Read from file z_080.den   
 #                   Number of data points =  763
 #                   Volume integral = 8.00000E+01
 #
 # Riley-Truhlar exchange potential
 #
 # Correlation-polarization potential (LDA):
 #                           Alpha = 5.10000E-24 cm**3
 #                            Bpol = 3.95285E+00
 #
 # Total elastic cross section = 5.86599E-16 cm**2 = 2.09478E+01 a0**2
 # 1st transport cross section = 1.02092E-16 cm**2 = 3.64577E+00 a0**2
 # 2nd transport cross section = 1.61627E-16 cm**2 = 5.77179E+00 a0**2
 #
 #
 # Differential cross section:                       MU=(1-COS(THETA))/2
 #
 #  THETA        MU          DCS          DCS        Sherman      error
 #  (deg)                 (cm**2/sr)   (a0**2/sr)    function
 #----------------------------------------------------------------------
  0.000E+00  0.00000E+00  6.82709E-15  2.43800E+02  0.00000E+00  4.8E-07
  1.000E-04  7.61557E-13  6.82709E-15  2.43800E+02  2.47698E-08  4.8E-07
  1.250E-04  1.18994E-12  6.82709E-15  2.43800E+02  3.09623E-08  4.8E-07
  1.500E-04  1.71346E-12  6.82709E-15  2.43800E+02  3.71547E-08  4.8E-07
  1.750E-04  2.33225E-12  6.82709E-15  2.43800E+02  4.33472E-08  4.8E-07
  2.000E-04  3.04617E-12  6.82709E-15  2.43800E+02  4.95397E-08  4.8E-07
  2.250E-04  3.85530E-12  6.82709E-15  2.43800E+02  5.57321E-08  4.8E-07
  2.500E-04  4.75964E-12  6.82709E-15  2.43800E+02  6.19246E-08  4.8E-07
  2.750E-04  5.75917E-12  6.82709E-15  2.43800E+02  6.81170E-08  4.8E-07
  3.000E-04  6.85391E-12  6.82709E-15  2.43800E+02  7.43095E-08  4.8E-07
  3.250E-04  8.04379E-12  6.82709E-15  2.43800E+02  8.05019E-08  4.8E-07
  3.500E-04  9.32893E-12  6.82709E-15  2.43800E+02  8.66944E-08  4.8E-07
  3.750E-04  1.07092E-11  6.82709E-15  2.43800E+02  9.28869E-08  4.8E-07
  4.000E-04  1.21847E-11  6.82709E-15  2.43800E+02  9.90793E-08  4.8E-07
  4.250E-04  1.37554E-11  6.82709E-15  2.43800E+02  1.05272E-07  4.8E-07
  4.500E-04  1.54213E-11  6.82709E-15  2.43800E+02  1.11464E-07  4.8E-07
  4.750E-04  1.71823E-11  6.82709E-15  2.43800E+02  1.17657E-07  4.8E-07
  5.000E-04  1.90386E-11  6.82709E-15  2.43800E+02  1.23849E-07  4.8E-07
  5.250E-04  2.09900E-11  6.82709E-15  2.43800E+02  1.30042E-07  4.8E-07
  5.500E-04  2.30367E-11  6.82709E-15  2.43800E+02  1.36234E-07  4.8E-07
  5.750E-04  2.51785E-11  6.82709E-15  2.43800E+02  1.42427E-07  4.8E-07
  6.000E-04  2.74156E-11  6.82709E-15  2.43800E+02  1.48619E-07  4.8E-07
  6.250E-04  2.97478E-11  6.82709E-15  2.43800E+02  1.54811E-07  4.8E-07
  6.500E-04  3.21752E-11  6.82709E-15  2.43800E+02  1.61004E-07  4.8E-07
  6.750E-04  3.46979E-11  6.82709E-15  2.43800E+02  1.67196E-07  4.8E-07
  7.000E-04  3.73157E-11  6.82709E-15  2.43800E+02  1.73389E-07  4.8E-07
  7.250E-04  4.00286E-11  6.82709E-15  2.43800E+02  1.79581E-07  4.8E-07
  7.500E-04  4.28368E-11  6.82709E-15  2.43800E+02  1.85774E-07  4.8E-07
  7.750E-04  4.57402E-11  6.82709E-15  2.43800E+02  1.91966E-07  4.8E-07
  8.000E-04  4.87388E-11  6.82709E-15  2.43800E+02  1.98159E-07  4.8E-07
  8.250E-04  5.18325E-11  6.82709E-15  2.43800E+02  2.04351E-07  4.8E-07
  8.500E-04  5.50215E-11  6.82709E-15  2.43800E+02  2.10544E-07  4.8E-07
  8.750E-04  5.83057E-11  6.82709E-15  2.43800E+02  2.16736E-07  4.8E-07
  9.000E-04  6.16850E-11  6.82709E-15  2.43800E+02  2.22928E-07  4.8E-07
  9.250E-04  6.51595E-11  6.82709E-15  2.43800E+02  2.29121E-07  4.8E-07
  9.500E-04  6.87293E-11  6.82709E-15  2.43800E+02  2.35313E-07  4.8E-07
  9.750E-04  7.23943E-11  6.82709E-15  2.43800E+02  2.41506E-07  4.8E-07
  1.000E-03  7.61544E-11  6.82709E-15  2.43800E+02  2.47698E-07  4.8E-07
  1.250E-03  1.18991E-10  6.82709E-15  2.43800E+02  3.09623E-07  4.8E-07
  1.500E-03  1.71347E-10  6.82709E-15  2.43800E+02  3.71548E-07  4.8E-07
  1.750E-03  2.33223E-10  6.82709E-15  2.43800E+02  4.33472E-07  4.8E-07
  2.000E-03  3.04617E-10  6.82709E-15  2.43800E+02  4.95397E-07  4.8E-07
  2.250E-03  3.85531E-10  6.82709E-15  2.43800E+02  5.57321E-07  4.8E-07
  2.500E-03  4.75965E-10  6.82709E-15  2.43800E+02  6.19246E-07  4.8E-07
  2.750E-03  5.75917E-10  6.82708E-15  2.43800E+02  6.81171E-07  4.8E-07
  3.000E-03  6.85389E-10  6.82708E-15  2.43800E+02  7.43096E-07  4.8E-07
  3.250E-03  8.04380E-10  6.82708E-15  2.43799E+02  8.05020E-07  4.8E-07
  3.500E-03  9.32891E-10  6.82708E-15  2.43799E+02  8.66945E-07  4.8E-07
  3.750E-03  1.07092E-09  6.82707E-15  2.43799E+02  9.28870E-07  4.8E-07
  4.000E-03  1.21847E-09  6.82707E-15  2.43799E+02  9.90795E-07  4.8E-07
  4.250E-03  1.37554E-09  6.82707E-15  2.43799E+02  1.05272E-06  4.8E-07
  4.500E-03  1.54213E-09  6.82707E-15  2.43799E+02  1.11464E-06  4.8E-07
  4.750E-03  1.71823E-09  6.82706E-15  2.43799E+02  1.17657E-06  4.8E-07
  5.000E-03  1.90386E-09  6.82706E-15  2.43799E+02  1.23850E-06  4.8E-07
  5.250E-03  2.09900E-09  6.82706E-15  2.43799E+02  1.30042E-06  4.8E-07
  5.500E-03  2.30367E-09  6.82705E-15  2.43798E+02  1.36235E-06  4.8E-07
  5.750E-03  2.51785E-09  6.82705E-15  2.43798E+02  1.42427E-06  4.8E-07
  6.000E-03  2.74156E-09  6.82704E-15  2.43798E+02  1.48620E-06  4.8E-07
  6.250E-03  2.97478E-09  6.82704E-15  2.43798E+02  1.54812E-06  4.8E-07
  6.500E-03  3.21752E-09  6.82703E-15  2.43798E+02  1.61005E-06  4.8E-07
  6.750E-03  3.46978E-09  6.82703E-15  2.43798E+02  1.67197E-06  4.8E-07
  7.000E-03  3.73156E-09  6.82702E-15  2.43797E+02  1.73390E-06  4.8E-07
  7.250E-03  4.00286E-09  6.82702E-15  2.43797E+02  1.79582E-06  4.8E-07
  7.500E-03  4.28368E-09  6.82701E-15  2.43797E+02  1.85775E-06  4.8E-07
  7.750E-03  4.57402E-09  6.82701E-15  2.43797E+02  1.91968E-06  4.8E-07
  8.000E-03  4.87388E-09  6.82700E-15  2.43797E+02  1.98160E-06  4.8E-07
  8.250E-03  5.18326E-09  6.82700E-15  2.43797E+02  2.04353E-06  4.8E-07
  8.500E-03  5.50215E-09  6.82699E-15  2.43796E+02  2.10545E-06  4.8E-07
  8.750E-03  5.83057E-09  6.82699E-15  2.43796E+02  2.16738E-06  4.8E-07
  9.000E-03  6.16850E-09  6.82698E-15  2.43796E+02  2.22931E-06  4.8E-07
  9.250E-03  6.51596E-09  6.82697E-15  2.43796E+02  2.29123E-06  4.8E-07
  9.500E-03  6.87293E-09  6.82697E-15  2.43795E+02  2.35316E-06  4.8E-07
  9.750E-03  7.23942E-09  6.82696E-15  2.43795E+02  2.41509E-06  4.8E-07
  1.000E-02  7.61544E-09  6.82695E-15  2.43795E+02  2.47701E-06  4.8E-07
  1.250E-02  1.18991E-08  6.82687E-15  2.43792E+02  3.09628E-06  4.8E-07
  1.500E-02  1.71347E-08  6.82677E-15  2.43789E+02  3.71557E-06  4.8E-07
  1.750E-02  2.33223E-08  6.82666E-15  2.43784E+02  4.33487E-06  4.8E-07
  2.000E-02  3.04617E-08  6.82652E-15  2.43780E+02  4.95420E-06  4.8E-07
  2.250E-02  3.85531E-08  6.82637E-15  2.43774E+02  5.57354E-06  4.8E-07
  2.500E-02  4.75965E-08  6.82620E-15  2.43768E+02  6.19291E-06  4.8E-07
  2.750E-02  5.75917E-08  6.82602E-15  2.43761E+02  6.81230E-06  4.8E-07
  3.000E-02  6.85389E-08  6.82581E-15  2.43754E+02  7.43173E-06  4.8E-07
  3.250E-02  8.04380E-08  6.82559E-15  2.43746E+02  8.05118E-06  4.8E-07
  3.500E-02  9.32891E-08  6.82535E-15  2.43738E+02  8.67067E-06  4.8E-07
  3.750E-02  1.07092E-07  6.82509E-15  2.43728E+02  9.29020E-06  4.8E-07
  4.000E-02  1.21847E-07  6.82481E-15  2.43718E+02  9.90977E-06  4.7E-07
  4.250E-02  1.37554E-07  6.82452E-15  2.43708E+02  1.05294E-05  4.7E-07
  4.500E-02  1.54213E-07  6.82421E-15  2.43697E+02  1.11490E-05  4.7E-07
  4.750E-02  1.71823E-07  6.82388E-15  2.43685E+02  1.17687E-05  4.7E-07
  5.000E-02  1.90386E-07  6.82353E-15  2.43673E+02  1.23885E-05  4.7E-07
  5.250E-02  2.09900E-07  6.82317E-15  2.43660E+02  1.30083E-05  4.7E-07
  5.500E-02  2.30367E-07  6.82278E-15  2.43646E+02  1.36282E-05  4.7E-07
  5.750E-02  2.51785E-07  6.82238E-15  2.43632E+02  1.42481E-05  4.7E-07
  6.000E-02  2.74156E-07  6.82196E-15  2.43617E+02  1.48681E-05  4.7E-07
  6.250E-02  2.97478E-07  6.82153E-15  2.43601E+02  1.54882E-05  4.7E-07
  6.500E-02  3.21752E-07  6.82107E-15  2.43585E+02  1.61083E-05  4.7E-07
  6.750E-02  3.46978E-07  6.82060E-15  2.43568E+02  1.67285E-05  4.7E-07
  7.000E-02  3.73156E-07  6.82012E-15  2.43551E+02  1.73487E-05  4.7E-07
  7.250E-02  4.00286E-07  6.81961E-15  2.43533E+02  1.79691E-05  4.7E-07
  7.500E-02  4.28368E-07  6.81908E-15  2.43514E+02  1.85895E-05  4.7E-07
  7.750E-02  4.57402E-07  6.81854E-15  2.43495E+02  1.92100E-05  4.6E-07
  8.000E-02  4.87388E-07  6.81798E-15  2.43475E+02  1.98306E-05  4.6E-07
  8.250E-02  5.18325E-07  6.81741E-15  2.43454E+02  2.04512E-05  4.6E-07
  8.500E-02  5.50215E-07  6.81681E-15  2.43433E+02  2.10720E-05  4.6E-07
  8.750E-02  5.83057E-07  6.81620E-15  2.43411E+02  2.16928E-05  4.6E-07
  9.000E-02  6.16850E-07  6.81557E-15  2.43389E+02  2.23138E-05  4.6E-07
  9.250E-02  6.51596E-07  6.81493E-15  2.43365E+02  2.29348E-05  4.6E-07
  9.500E-02  6.87293E-07  6.81426E-15  2.43342E+02  2.35559E-05  4.6E-07
  9.750E-02  7.23942E-07  6.81358E-15  2.43317E+02  2.41772E-05  4.6E-07
  1.000E-01  7.61543E-07  6.81288E-15  2.43292E+02  2.47985E-05  4.5E-07
  1.250E-01  1.18991E-06  6.80494E-15  2.43009E+02  3.10182E-05  4.4E-07
  1.500E-01  1.71347E-06  6.79528E-15  2.42664E+02  3.72512E-05  4.2E-07
  1.750E-01  2.33223E-06  6.78394E-15  2.42259E+02  4.35000E-05  4.1E-07
  2.000E-01  3.04617E-06  6.77095E-15  2.41795E+02  4.97672E-05  3.9E-07
  2.250E-01  3.85531E-06  6.75636E-15  2.41274E+02  5.60552E-05  3.6E-07
  2.500E-01  4.75964E-06  6.74019E-15  2.40697E+02  6.23663E-05  3.4E-07
  2.750E-01  5.75916E-06  6.72252E-15  2.40065E+02  6.87029E-05  3.1E-07
  3.000E-01  6.85388E-06  6.70338E-15  2.39382E+02  7.50672E-05  2.8E-07
  3.250E-01  8.04378E-06  6.68283E-15  2.38648E+02  8.14613E-05  2.5E-07
  3.500E-01  9.32888E-06  6.66094E-15  2.37866E+02  8.78872E-05  2.2E-07
  3.750E-01  1.07092E-05  6.63776E-15  2.37039E+02  9.43469E-05  1.9E-07
  4.000E-01  1.21846E-05  6.61336E-15  2.36167E+02  1.00842E-04  1.6E-07
  4.250E-01  1.37553E-05  6.58781E-15  2.35255E+02  1.07375E-04  1.2E-07
  4.500E-01  1.54212E-05  6.56118E-15  2.34304E+02  1.13946E-04  1.0E-07
  4.750E-01  1.71822E-05  6.53354E-15  2.33317E+02  1.20557E-04  1.0E-07
  5.000E-01  1.90385E-05  6.50495E-15  2.32296E+02  1.27211E-04  1.0E-07
  5.250E-01  2.09899E-05  6.47549E-15  2.31244E+02  1.33907E-04  1.0E-07
  5.500E-01  2.30365E-05  6.44524E-15  2.30164E+02  1.40647E-04  1.0E-07
  5.750E-01  2.51783E-05  6.41426E-15  2.29057E+02  1.47431E-04  1.0E-07
  6.000E-01  2.74153E-05  6.38263E-15  2.27928E+02  1.54262E-04  1.0E-07
  6.250E-01  2.97475E-05  6.35042E-15  2.26778E+02  1.61139E-04  1.0E-07
  6.500E-01  3.21749E-05  6.31769E-15  2.25609E+02  1.68062E-04  1.3E-07
  6.750E-01  3.46974E-05  6.28452E-15  2.24424E+02  1.75033E-04  1.4E-07
  7.000E-01  3.73152E-05  6.25098E-15  2.23226E+02  1.82052E-04  1.6E-07
  7.250E-01  4.00281E-05  6.21711E-15  2.22017E+02  1.89119E-04  1.7E-07
  7.500E-01  4.28362E-05  6.18300E-15  2.20799E+02  1.96233E-04  1.9E-07
  7.750E-01  4.57395E-05  6.14870E-15  2.19574E+02  2.03396E-04  1.9E-07
  8.000E-01  4.87380E-05  6.11427E-15  2.18345E+02  2.10606E-04  2.0E-07
  8.250E-01  5.18317E-05  6.07976E-15  2.17112E+02  2.17864E-04  2.0E-07
  8.500E-01  5.50205E-05  6.04522E-15  2.15879E+02  2.25169E-04  2.0E-07
  8.750E-01  5.83045E-05  6.01071E-15  2.14646E+02  2.32520E-04  2.0E-07
  9.000E-01  6.16838E-05  5.97626E-15  2.13416E+02  2.39919E-04  2.0E-07
  9.250E-01  6.51582E-05  5.94192E-15  2.12190E+02  2.47363E-04  1.9E-07
  9.500E-01  6.87277E-05  5.90773E-15  2.10969E+02  2.54852E-04  1.8E-07
  9.750E-01  7.23925E-05  5.87373E-15  2.09755E+02  2.62386E-04  1.7E-07
  1.000E+00  7.61524E-05  5.83994E-15  2.08548E+02  2.69964E-04  1.6E-07
  1.100E+00  9.21439E-05  5.70751E-15  2.03819E+02  3.00701E-04  1.0E-07
  1.200E+00  1.09658E-04  5.58032E-15  1.99277E+02  3.32084E-04  1.0E-07
  1.300E+00  1.28695E-04  5.45901E-15  1.94945E+02  3.64072E-04  1.0E-07
  1.400E+00  1.49255E-04  5.34360E-15  1.90824E+02  3.96631E-04  1.3E-07
  1.500E+00  1.71338E-04  5.23367E-15  1.86898E+02  4.29746E-04  1.6E-07
  1.600E+00  1.94942E-04  5.12851E-15  1.83143E+02  4.63414E-04  1.6E-07
  1.700E+00  2.20070E-04  5.02733E-15  1.79529E+02  4.97649E-04  1.2E-07
  1.800E+00  2.46720E-04  4.92935E-15  1.76030E+02  5.32472E-04  1.0E-07
  1.900E+00  2.74892E-04  4.83390E-15  1.72622E+02  5.67909E-04  1.0E-07
  2.000E+00  3.04586E-04  4.74051E-15  1.69287E+02  6.03986E-04  1.0E-07
  2.100E+00  3.35803E-04  4.64892E-15  1.66016E+02  6.40721E-04  1.2E-07
  2.200E+00  3.68542E-04  4.55906E-15  1.62807E+02  6.78122E-04  1.5E-07
  2.300E+00  4.02802E-04  4.47099E-15  1.59662E+02  7.16187E-04  1.4E-07
  2.400E+00  4.38585E-04  4.38488E-15  1.56587E+02  7.54900E-04  1.0E-07
  2.500E+00  4.75889E-04  4.30092E-15  1.53589E+02  7.94241E-04  1.0E-07
  2.600E+00  5.14715E-04  4.21928E-15  1.50673E+02  8.34183E-04  1.0E-07
  2.700E+00  5.55063E-04  4.14007E-15  1.47845E+02  8.74702E-04  1.0E-07
  2.800E+00  5.96931E-04  4.06332E-15  1.45104E+02  9.15776E-04  1.2E-07
  2.900E+00  6.40321E-04  3.98898E-15  1.42449E+02  9.57393E-04  1.4E-07
  3.000E+00  6.85233E-04  3.91689E-15  1.39875E+02  9.99549E-04  1.3E-07
  3.100E+00  7.31665E-04  3.84687E-15  1.37374E+02  1.04225E-03  1.0E-07
  3.200E+00  7.79618E-04  3.77872E-15  1.34941E+02  1.08550E-03  1.0E-07
  3.300E+00  8.29092E-04  3.71223E-15  1.32566E+02  1.12933E-03  1.0E-07
  3.400E+00  8.80086E-04  3.64722E-15  1.30245E+02  1.17374E-03  1.0E-07
  3.500E+00  9.32601E-04  3.58357E-15  1.27972E+02  1.21874E-03  1.2E-07
  3.600E+00  9.86636E-04  3.52121E-15  1.25745E+02  1.26435E-03  1.3E-07
  3.700E+00  1.04219E-03  3.46011E-15  1.23563E+02  1.31056E-03  1.2E-07
  3.800E+00  1.09927E-03  3.40028E-15  1.21426E+02  1.35736E-03  1.0E-07
  3.900E+00  1.15786E-03  3.34176E-15  1.19336E+02  1.40473E-03  1.0E-07
  4.000E+00  1.21797E-03  3.28459E-15  1.17295E+02  1.45265E-03  1.0E-07
  4.100E+00  1.27961E-03  3.22880E-15  1.15302E+02  1.50111E-03  1.0E-07
  4.200E+00  1.34276E-03  3.17439E-15  1.13360E+02  1.55008E-03  1.2E-07
  4.300E+00  1.40743E-03  3.12135E-15  1.11465E+02  1.59956E-03  1.3E-07
  4.400E+00  1.47362E-03  3.06961E-15  1.09618E+02  1.64955E-03  1.1E-07
  4.500E+00  1.54133E-03  3.01912E-15  1.07815E+02  1.70003E-03  1.0E-07
  4.600E+00  1.61056E-03  2.96977E-15  1.06052E+02  1.75103E-03  1.0E-07
  4.700E+00  1.68131E-03  2.92149E-15  1.04328E+02  1.80254E-03  1.0E-07
  4.800E+00  1.75357E-03  2.87418E-15  1.02639E+02  1.85458E-03  1.0E-07
  4.900E+00  1.82735E-03  2.82778E-15  1.00982E+02  1.90716E-03  1.2E-07
  5.000E+00  1.90265E-03  2.78225E-15  9.93560E+01  1.96028E-03  1.2E-07
  5.100E+00  1.97947E-03  2.73756E-15  9.77602E+01  2.01394E-03  1.0E-07
  5.200E+00  2.05780E-03  2.69371E-15  9.61941E+01  2.06812E-03  1.0E-07
  5.300E+00  2.13765E-03  2.65070E-15  9.46581E+01  2.12283E-03  1.0E-07
  5.400E+00  2.21902E-03  2.60854E-15  9.31526E+01  2.17803E-03  1.0E-07
  5.500E+00  2.30190E-03  2.56724E-15  9.16778E+01  2.23373E-03  1.0E-07
  5.600E+00  2.38630E-03  2.52680E-15  9.02338E+01  2.28989E-03  1.2E-07
  5.700E+00  2.47222E-03  2.48722E-15  8.88203E+01  2.34652E-03  1.2E-07
  5.800E+00  2.55965E-03  2.44847E-15  8.74365E+01  2.40360E-03  1.0E-07
  5.900E+00  2.64859E-03  2.41051E-15  8.60810E+01  2.46113E-03  1.0E-07
  6.000E+00  2.73905E-03  2.37331E-15  8.47526E+01  2.51913E-03  1.0E-07
  6.100E+00  2.83103E-03  2.33682E-15  8.34494E+01  2.57758E-03  1.0E-07
  6.200E+00  2.92452E-03  2.30100E-15  8.21701E+01  2.63650E-03  1.0E-07
  6.300E+00  3.01952E-03  2.26581E-15  8.09134E+01  2.69589E-03  1.2E-07
  6.400E+00  3.11604E-03  2.23122E-15  7.96781E+01  2.75575E-03  1.2E-07
  6.500E+00  3.21407E-03  2.19721E-15  7.84638E+01  2.81608E-03  1.0E-07
  6.600E+00  3.31362E-03  2.16378E-15  7.72701E+01  2.87687E-03  1.0E-07
  6.700E+00  3.41468E-03  2.13093E-15  7.60970E+01  2.93811E-03  1.0E-07
  6.800E+00  3.51725E-03  2.09866E-15  7.49446E+01  2.99979E-03  1.0E-07
  6.900E+00  3.62133E-03  2.06697E-15  7.38130E+01  3.06189E-03  1.0E-07
  7.000E+00  3.72692E-03  2.03587E-15  7.27021E+01  3.12441E-03  1.2E-07
  7.100E+00  3.83403E-03  2.00534E-15  7.16119E+01  3.18732E-03  1.2E-07
  7.200E+00  3.94265E-03  1.97537E-15  7.05417E+01  3.25063E-03  1.0E-07
  7.300E+00  4.05278E-03  1.94595E-15  6.94912E+01  3.31433E-03  1.0E-07
  7.400E+00  4.16442E-03  1.91706E-15  6.84593E+01  3.37842E-03  1.0E-07
  7.500E+00  4.27757E-03  1.88866E-15  6.74453E+01  3.44290E-03  1.0E-07
  7.600E+00  4.39223E-03  1.86074E-15  6.64484E+01  3.50777E-03  1.1E-07
  7.700E+00  4.50840E-03  1.83328E-15  6.54677E+01  3.57303E-03  1.2E-07
  7.800E+00  4.62608E-03  1.80626E-15  6.45025E+01  3.63867E-03  1.1E-07
  7.900E+00  4.74527E-03  1.77965E-15  6.35526E+01  3.70471E-03  1.0E-07
  8.000E+00  4.86597E-03  1.75347E-15  6.26177E+01  3.77111E-03  1.0E-07
  8.100E+00  4.98817E-03  1.72771E-15  6.16975E+01  3.83788E-03  1.0E-07
  8.200E+00  5.11188E-03  1.70236E-15  6.07922E+01  3.90500E-03  1.0E-07
  8.300E+00  5.23711E-03  1.67742E-15  5.99018E+01  3.97247E-03  1.1E-07
  8.400E+00  5.36383E-03  1.65290E-15  5.90261E+01  4.04026E-03  1.2E-07
  8.500E+00  5.49207E-03  1.62879E-15  5.81652E+01  4.10838E-03  1.1E-07
  8.600E+00  5.62181E-03  1.60509E-15  5.73187E+01  4.17681E-03  1.0E-07
  8.700E+00  5.75306E-03  1.58178E-15  5.64863E+01  4.24555E-03  1.0E-07
  8.800E+00  5.88581E-03  1.55885E-15  5.56676E+01  4.31459E-03  1.0E-07
  8.900E+00  6.02007E-03  1.53629E-15  5.48620E+01  4.38394E-03  1.0E-07
  9.000E+00  6.15583E-03  1.51409E-15  5.40690E+01  4.45358E-03  1.1E-07
  9.100E+00  6.29310E-03  1.49222E-15  5.32882E+01  4.52351E-03  1.2E-07
  9.200E+00  6.43187E-03  1.47069E-15  5.25191E+01  4.59373E-03  1.1E-07
  9.300E+00  6.57214E-03  1.44947E-15  5.17615E+01  4.66422E-03  1.0E-07
  9.400E+00  6.71392E-03  1.42857E-15  5.10151E+01  4.73498E-03  1.0E-07
  9.500E+00  6.85720E-03  1.40798E-15  5.02798E+01  4.80600E-03  1.0E-07
  9.600E+00  7.00198E-03  1.38770E-15  4.95556E+01  4.87727E-03  1.0E-07
  9.700E+00  7.14827E-03  1.36773E-15  4.88425E+01  4.94877E-03  1.2E-07
  9.800E+00  7.29605E-03  1.34807E-15  4.81404E+01  5.02050E-03  1.3E-07
  9.900E+00  7.44534E-03  1.32871E-15  4.74492E+01  5.09245E-03  1.1E-07
  1.000E+01  7.59612E-03  1.30966E-15  4.67688E+01  5.16462E-03  1.0E-07
  1.025E+01  7.97965E-03  1.26330E-15  4.51133E+01  5.34593E-03  1.0E-07
  1.050E+01  8.37255E-03  1.21866E-15  4.35190E+01  5.52842E-03  1.3E-07
  1.075E+01  8.77480E-03  1.17560E-15  4.19814E+01  5.71194E-03  1.0E-07
  1.100E+01  9.18641E-03  1.13406E-15  4.04979E+01  5.89630E-03  1.0E-07
  1.125E+01  9.60736E-03  1.09399E-15  3.90670E+01  6.08139E-03  1.2E-07
  1.150E+01  1.00376E-02  1.05537E-15  3.76878E+01  6.26709E-03  1.0E-07
  1.175E+01  1.04773E-02  1.01812E-15  3.63578E+01  6.45331E-03  1.2E-07
  1.200E+01  1.09262E-02  9.82169E-16  3.50739E+01  6.63983E-03  1.0E-07
  1.225E+01  1.13844E-02  9.47432E-16  3.38334E+01  6.82643E-03  1.0E-07
  1.250E+01  1.18520E-02  9.13864E-16  3.26347E+01  7.01292E-03  1.3E-07
  1.275E+01  1.23288E-02  8.81439E-16  3.14768E+01  7.19920E-03  1.0E-07
  1.300E+01  1.28150E-02  8.50123E-16  3.03584E+01  7.38522E-03  1.0E-07
  1.325E+01  1.33104E-02  8.19862E-16  2.92778E+01  7.57080E-03  1.3E-07
  1.350E+01  1.38150E-02  7.90599E-16  2.82328E+01  7.75565E-03  1.0E-07
  1.375E+01  1.43290E-02  7.62286E-16  2.72217E+01  7.93944E-03  1.1E-07
  1.400E+01  1.48521E-02  7.34893E-16  2.62435E+01  8.12199E-03  1.2E-07
  1.425E+01  1.53845E-02  7.08396E-16  2.52973E+01  8.30327E-03  1.0E-07
  1.450E+01  1.59262E-02  6.82763E-16  2.43819E+01  8.48320E-03  1.3E-07
  1.475E+01  1.64770E-02  6.57956E-16  2.34961E+01  8.66148E-03  1.0E-07
  1.500E+01  1.70371E-02  6.33938E-16  2.26384E+01  8.83765E-03  1.0E-07
