 #
 # Subroutine ELSEPA. Elastic scattering of electrons and positrons
 #                    by neutral atoms and positive ions
 #
 # Projectile: electron
 # Kinetic energy = 4.00000E+03 eV = 1.46997E+02 a.u.
 #
 # Element: Hg,  Z =  80,  atomic weight = 2.00590E+02 g/mol
 #
 # Nuclear model: Fermi distribution
 #                Average radius = 6.26355E-13 cm
 #                Skin thickness = 5.46000E-14 cm
 #
 # Number of electrons = 80
 #
 # Electron density: Read from file z_080.den   
 #                   Number of data points =  763
 #                   Volume integral = 8.00000E+01
 #
 # Riley-Truhlar exchange potential
 #
 # Correlation-polarization potential (LDA):
 #                           Alpha = 5.10000E-24 cm**3
 #                            Bpol = 1.57123E+01
 #
 # Total elastic cross section = 1.37065E-16 cm**2 = 4.89466E+00 a0**2
 # 1st transport cross section = 1.59625E-17 cm**2 = 5.70031E-01 a0**2
 # 2nd transport cross section = 1.86500E-17 cm**2 = 6.66005E-01 a0**2
 #
 #
 # Differential cross section:                       MU=(1-COS(THETA))/2
 #
 #  THETA        MU          DCS          DCS        Sherman      error
 #  (deg)                 (cm**2/sr)   (a0**2/sr)    function
 #----------------------------------------------------------------------
  0.000E+00  0.00000E+00  8.34539E-15  2.98019E+02  0.00000E+00  2.0E-05
  1.000E-04  7.61557E-13  8.34539E-15  2.98019E+02  1.19372E-09  2.0E-05
  1.250E-04  1.18994E-12  8.34539E-15  2.98019E+02  1.49215E-09  2.0E-05
  1.500E-04  1.71346E-12  8.34539E-15  2.98019E+02  1.79058E-09  2.0E-05
  1.750E-04  2.33225E-12  8.34539E-15  2.98019E+02  2.08901E-09  2.0E-05
  2.000E-04  3.04617E-12  8.34539E-15  2.98019E+02  2.38743E-09  2.0E-05
  2.250E-04  3.85530E-12  8.34539E-15  2.98019E+02  2.68586E-09  2.0E-05
  2.500E-04  4.75964E-12  8.34539E-15  2.98019E+02  2.98429E-09  2.0E-05
  2.750E-04  5.75917E-12  8.34539E-15  2.98019E+02  3.28272E-09  2.0E-05
  3.000E-04  6.85391E-12  8.34539E-15  2.98019E+02  3.58115E-09  2.0E-05
  3.250E-04  8.04379E-12  8.34539E-15  2.98019E+02  3.87958E-09  2.0E-05
  3.500E-04  9.32893E-12  8.34539E-15  2.98019E+02  4.17801E-09  2.0E-05
  3.750E-04  1.07092E-11  8.34539E-15  2.98019E+02  4.47644E-09  2.0E-05
  4.000E-04  1.21847E-11  8.34539E-15  2.98019E+02  4.77487E-09  2.0E-05
  4.250E-04  1.37554E-11  8.34539E-15  2.98019E+02  5.07330E-09  2.0E-05
  4.500E-04  1.54213E-11  8.34539E-15  2.98019E+02  5.37173E-09  2.0E-05
  4.750E-04  1.71823E-11  8.34539E-15  2.98019E+02  5.67016E-09  2.0E-05
  5.000E-04  1.90386E-11  8.34539E-15  2.98019E+02  5.96859E-09  2.0E-05
  5.250E-04  2.09900E-11  8.34539E-15  2.98019E+02  6.26701E-09  2.0E-05
  5.500E-04  2.30367E-11  8.34539E-15  2.98019E+02  6.56544E-09  2.0E-05
  5.750E-04  2.51785E-11  8.34538E-15  2.98019E+02  6.86387E-09  2.0E-05
  6.000E-04  2.74156E-11  8.34538E-15  2.98019E+02  7.16230E-09  2.0E-05
  6.250E-04  2.97478E-11  8.34538E-15  2.98019E+02  7.46073E-09  2.0E-05
  6.500E-04  3.21752E-11  8.34538E-15  2.98019E+02  7.75916E-09  2.0E-05
  6.750E-04  3.46979E-11  8.34538E-15  2.98019E+02  8.05759E-09  2.0E-05
  7.000E-04  3.73157E-11  8.34538E-15  2.98019E+02  8.35602E-09  2.0E-05
  7.250E-04  4.00286E-11  8.34538E-15  2.98019E+02  8.65445E-09  2.0E-05
  7.500E-04  4.28368E-11  8.34538E-15  2.98019E+02  8.95288E-09  2.0E-05
  7.750E-04  4.57402E-11  8.34538E-15  2.98019E+02  9.25130E-09  2.0E-05
  8.000E-04  4.87388E-11  8.34538E-15  2.98019E+02  9.54973E-09  2.0E-05
  8.250E-04  5.18325E-11  8.34538E-15  2.98019E+02  9.84816E-09  2.0E-05
  8.500E-04  5.50215E-11  8.34538E-15  2.98019E+02  1.01466E-08  2.0E-05
  8.750E-04  5.83057E-11  8.34538E-15  2.98019E+02  1.04450E-08  2.0E-05
  9.000E-04  6.16850E-11  8.34538E-15  2.98019E+02  1.07434E-08  2.0E-05
  9.250E-04  6.51595E-11  8.34537E-15  2.98019E+02  1.10419E-08  2.0E-05
  9.500E-04  6.87293E-11  8.34537E-15  2.98019E+02  1.13403E-08  2.0E-05
  9.750E-04  7.23943E-11  8.34537E-15  2.98019E+02  1.16387E-08  2.0E-05
  1.000E-03  7.61544E-11  8.34537E-15  2.98019E+02  1.19372E-08  2.0E-05
  1.250E-03  1.18991E-10  8.34536E-15  2.98018E+02  1.49214E-08  2.0E-05
  1.500E-03  1.71347E-10  8.34535E-15  2.98018E+02  1.79057E-08  2.0E-05
  1.750E-03  2.33223E-10  8.34533E-15  2.98017E+02  2.08900E-08  2.0E-05
  2.000E-03  3.04617E-10  8.34531E-15  2.98016E+02  2.38743E-08  2.0E-05
  2.250E-03  3.85531E-10  8.34529E-15  2.98016E+02  2.68585E-08  2.0E-05
  2.500E-03  4.75965E-10  8.34527E-15  2.98015E+02  2.98428E-08  2.0E-05
  2.750E-03  5.75917E-10  8.34524E-15  2.98014E+02  3.28270E-08  2.0E-05
  3.000E-03  6.85389E-10  8.34521E-15  2.98013E+02  3.58112E-08  2.0E-05
  3.250E-03  8.04380E-10  8.34518E-15  2.98012E+02  3.87954E-08  2.0E-05
  3.500E-03  9.32891E-10  8.34515E-15  2.98011E+02  4.17796E-08  2.0E-05
  3.750E-03  1.07092E-09  8.34511E-15  2.98009E+02  4.47638E-08  2.0E-05
  4.000E-03  1.21847E-09  8.34507E-15  2.98008E+02  4.77480E-08  2.0E-05
  4.250E-03  1.37554E-09  8.34503E-15  2.98006E+02  5.07321E-08  2.0E-05
  4.500E-03  1.54213E-09  8.34499E-15  2.98005E+02  5.37163E-08  2.0E-05
  4.750E-03  1.71823E-09  8.34494E-15  2.98003E+02  5.67004E-08  2.0E-05
  5.000E-03  1.90386E-09  8.34489E-15  2.98001E+02  5.96845E-08  2.0E-05
  5.250E-03  2.09900E-09  8.34484E-15  2.98000E+02  6.26686E-08  2.0E-05
  5.500E-03  2.30367E-09  8.34479E-15  2.97998E+02  6.56526E-08  2.0E-05
  5.750E-03  2.51785E-09  8.34473E-15  2.97996E+02  6.86366E-08  2.0E-05
  6.000E-03  2.74156E-09  8.34467E-15  2.97994E+02  7.16207E-08  2.0E-05
  6.250E-03  2.97478E-09  8.34461E-15  2.97991E+02  7.46046E-08  2.0E-05
  6.500E-03  3.21752E-09  8.34455E-15  2.97989E+02  7.75886E-08  2.0E-05
  6.750E-03  3.46978E-09  8.34448E-15  2.97987E+02  8.05725E-08  2.0E-05
  7.000E-03  3.73156E-09  8.34441E-15  2.97984E+02  8.35564E-08  2.0E-05
  7.250E-03  4.00286E-09  8.34434E-15  2.97982E+02  8.65403E-08  2.0E-05
  7.500E-03  4.28368E-09  8.34427E-15  2.97979E+02  8.95241E-08  2.0E-05
  7.750E-03  4.57402E-09  8.34419E-15  2.97976E+02  9.25079E-08  2.0E-05
  8.000E-03  4.87388E-09  8.34411E-15  2.97974E+02  9.54917E-08  2.0E-05
  8.250E-03  5.18326E-09  8.34403E-15  2.97971E+02  9.84755E-08  2.0E-05
  8.500E-03  5.50215E-09  8.34395E-15  2.97968E+02  1.01459E-07  2.0E-05
  8.750E-03  5.83057E-09  8.34386E-15  2.97965E+02  1.04443E-07  2.0E-05
  9.000E-03  6.16850E-09  8.34377E-15  2.97961E+02  1.07426E-07  2.0E-05
  9.250E-03  6.51596E-09  8.34368E-15  2.97958E+02  1.10410E-07  2.0E-05
  9.500E-03  6.87293E-09  8.34358E-15  2.97955E+02  1.13394E-07  2.0E-05
  9.750E-03  7.23942E-09  8.34349E-15  2.97951E+02  1.16377E-07  2.0E-05
  1.000E-02  7.61544E-09  8.34339E-15  2.97948E+02  1.19361E-07  2.0E-05
  1.250E-02  1.18991E-08  8.34227E-15  2.97908E+02  1.49193E-07  2.0E-05
  1.500E-02  1.71347E-08  8.34089E-15  2.97859E+02  1.79020E-07  2.0E-05
  1.750E-02  2.33223E-08  8.33927E-15  2.97801E+02  2.08841E-07  2.0E-05
  2.000E-02  3.04617E-08  8.33740E-15  2.97734E+02  2.38655E-07  2.0E-05
  2.250E-02  3.85531E-08  8.33528E-15  2.97658E+02  2.68461E-07  2.0E-05
  2.500E-02  4.75965E-08  8.33292E-15  2.97574E+02  2.98257E-07  2.0E-05
  2.750E-02  5.75917E-08  8.33031E-15  2.97481E+02  3.28043E-07  1.9E-05
  3.000E-02  6.85389E-08  8.32746E-15  2.97379E+02  3.57818E-07  1.9E-05
  3.250E-02  8.04380E-08  8.32437E-15  2.97269E+02  3.87581E-07  1.9E-05
  3.500E-02  9.32891E-08  8.32103E-15  2.97150E+02  4.17331E-07  1.9E-05
  3.750E-02  1.07092E-07  8.31746E-15  2.97022E+02  4.47066E-07  1.9E-05
  4.000E-02  1.21847E-07  8.31365E-15  2.96886E+02  4.76787E-07  1.8E-05
  4.250E-02  1.37554E-07  8.30960E-15  2.96741E+02  5.06491E-07  1.8E-05
  4.500E-02  1.54213E-07  8.30532E-15  2.96588E+02  5.36179E-07  1.8E-05
  4.750E-02  1.71823E-07  8.30080E-15  2.96427E+02  5.65849E-07  1.8E-05
  5.000E-02  1.90386E-07  8.29605E-15  2.96257E+02  5.95500E-07  1.7E-05
  5.250E-02  2.09900E-07  8.29108E-15  2.96080E+02  6.25132E-07  1.7E-05
  5.500E-02  2.30367E-07  8.28587E-15  2.95894E+02  6.54743E-07  1.7E-05
  5.750E-02  2.51785E-07  8.28044E-15  2.95700E+02  6.84333E-07  1.6E-05
  6.000E-02  2.74156E-07  8.27479E-15  2.95498E+02  7.13902E-07  1.6E-05
  6.250E-02  2.97478E-07  8.26892E-15  2.95289E+02  7.43447E-07  1.6E-05
  6.500E-02  3.21752E-07  8.26284E-15  2.95071E+02  7.72969E-07  1.5E-05
  6.750E-02  3.46978E-07  8.25653E-15  2.94846E+02  8.02467E-07  1.5E-05
  7.000E-02  3.73156E-07  8.25002E-15  2.94614E+02  8.31940E-07  1.4E-05
  7.250E-02  4.00286E-07  8.24330E-15  2.94373E+02  8.61387E-07  1.4E-05
  7.500E-02  4.28368E-07  8.23637E-15  2.94126E+02  8.90808E-07  1.4E-05
  7.750E-02  4.57402E-07  8.22923E-15  2.93871E+02  9.20202E-07  1.3E-05
  8.000E-02  4.87388E-07  8.22190E-15  2.93609E+02  9.49568E-07  1.3E-05
  8.250E-02  5.18325E-07  8.21436E-15  2.93340E+02  9.78906E-07  1.2E-05
  8.500E-02  5.50215E-07  8.20664E-15  2.93064E+02  1.00822E-06  1.2E-05
  8.750E-02  5.83057E-07  8.19872E-15  2.92781E+02  1.03750E-06  1.2E-05
  9.000E-02  6.16850E-07  8.19061E-15  2.92492E+02  1.06675E-06  1.1E-05
  9.250E-02  6.51596E-07  8.18231E-15  2.92196E+02  1.09597E-06  1.1E-05
  9.500E-02  6.87293E-07  8.17384E-15  2.91893E+02  1.12516E-06  1.0E-05
  9.750E-02  7.23942E-07  8.16518E-15  2.91584E+02  1.15432E-06  9.7E-06
  1.000E-01  7.61543E-07  8.15636E-15  2.91269E+02  1.18344E-06  9.3E-06
  1.250E-01  1.18991E-06  8.05922E-15  2.87800E+02  1.47293E-06  4.5E-06
  1.500E-01  1.71347E-06  7.94860E-15  2.83850E+02  1.75913E-06  1.3E-07
  1.750E-01  2.33223E-06  7.82834E-15  2.79555E+02  2.04227E-06  4.1E-06
  2.000E-01  3.04617E-06  7.70223E-15  2.75052E+02  2.32294E-06  6.9E-06
  2.250E-01  3.85531E-06  7.57373E-15  2.70463E+02  2.60206E-06  8.4E-06
  2.500E-01  4.75964E-06  7.44584E-15  2.65896E+02  2.88079E-06  8.5E-06
  2.750E-01  5.75916E-06  7.32098E-15  2.61437E+02  3.16040E-06  7.3E-06
  3.000E-01  6.85388E-06  7.20092E-15  2.57149E+02  3.44208E-06  5.1E-06
  3.250E-01  8.04378E-06  7.08676E-15  2.53073E+02  3.72684E-06  2.2E-06
  3.500E-01  9.32888E-06  6.97903E-15  2.49226E+02  4.01530E-06  8.9E-07
  3.750E-01  1.07092E-05  6.87774E-15  2.45609E+02  4.30767E-06  3.6E-06
  4.000E-01  1.21846E-05  6.78250E-15  2.42208E+02  4.60368E-06  5.7E-06
  4.250E-01  1.37553E-05  6.69267E-15  2.38999E+02  4.90263E-06  6.7E-06
  4.500E-01  1.54212E-05  6.60743E-15  2.35956E+02  5.20350E-06  6.7E-06
  4.750E-01  1.71822E-05  6.52595E-15  2.33046E+02  5.50508E-06  5.6E-06
  5.000E-01  1.90385E-05  6.44747E-15  2.30243E+02  5.80616E-06  3.7E-06
  5.250E-01  2.09899E-05  6.37133E-15  2.27524E+02  6.10565E-06  1.2E-06
  5.500E-01  2.30365E-05  6.29707E-15  2.24872E+02  6.40277E-06  1.3E-06
  5.750E-01  2.51783E-05  6.22440E-15  2.22277E+02  6.69708E-06  3.5E-06
  6.000E-01  2.74153E-05  6.15318E-15  2.19734E+02  6.98857E-06  5.2E-06
  6.250E-01  2.97475E-05  6.08345E-15  2.17244E+02  7.27758E-06  5.9E-06
  6.500E-01  3.21749E-05  6.01531E-15  2.14811E+02  7.56481E-06  5.7E-06
  6.750E-01  3.46974E-05  5.94892E-15  2.12440E+02  7.85112E-06  4.6E-06
  7.000E-01  3.73152E-05  5.88443E-15  2.10137E+02  8.13745E-06  2.8E-06
  7.250E-01  4.00281E-05  5.82196E-15  2.07906E+02  8.42466E-06  6.3E-07
  7.500E-01  4.28362E-05  5.76157E-15  2.05749E+02  8.71338E-06  1.6E-06
  7.750E-01  4.57395E-05  5.70323E-15  2.03666E+02  9.00395E-06  3.6E-06
  8.000E-01  4.87380E-05  5.64684E-15  2.01652E+02  9.29638E-06  4.9E-06
  8.250E-01  5.18317E-05  5.59224E-15  1.99702E+02  9.59032E-06  5.4E-06
  8.500E-01  5.50205E-05  5.53922E-15  1.97809E+02  9.88516E-06  5.1E-06
  8.750E-01  5.83045E-05  5.48756E-15  1.95964E+02  1.01801E-05  4.0E-06
  9.000E-01  6.16838E-05  5.43703E-15  1.94160E+02  1.04743E-05  2.2E-06
  9.250E-01  6.51582E-05  5.38745E-15  1.92389E+02  1.07670E-05  1.5E-07
  9.500E-01  6.87277E-05  5.33866E-15  1.90647E+02  1.10577E-05  1.9E-06
  9.750E-01  7.23925E-05  5.29057E-15  1.88930E+02  1.13460E-05  3.6E-06
  1.000E+00  7.61524E-05  5.24313E-15  1.87236E+02  1.16319E-05  4.7E-06
  1.100E+00  9.21439E-05  5.06033E-15  1.80708E+02  1.27608E-05  1.7E-06
  1.200E+00  1.09658E-04  4.89032E-15  1.74636E+02  1.38943E-05  4.6E-06
  1.300E+00  1.28695E-04  4.73137E-15  1.68960E+02  1.50359E-05  1.2E-06
  1.400E+00  1.49255E-04  4.57864E-15  1.63506E+02  1.61527E-05  4.5E-06
  1.500E+00  1.71338E-04  4.43057E-15  1.58219E+02  1.72402E-05  8.4E-07
  1.600E+00  1.94942E-04  4.28835E-15  1.53140E+02  1.83256E-05  4.4E-06
  1.700E+00  2.20070E-04  4.15122E-15  1.48243E+02  1.94069E-05  4.6E-07
  1.800E+00  2.46720E-04  4.01700E-15  1.43450E+02  2.04531E-05  4.3E-06
  1.900E+00  2.74892E-04  3.88538E-15  1.38750E+02  2.14625E-05  1.0E-07
  2.000E+00  3.04586E-04  3.75733E-15  1.34177E+02  2.24582E-05  4.3E-06
  2.100E+00  3.35803E-04  3.63246E-15  1.29718E+02  2.34323E-05  2.4E-07
  2.200E+00  3.68542E-04  3.50974E-15  1.25335E+02  2.43546E-05  4.2E-06
  2.300E+00  4.02802E-04  3.38934E-15  1.21035E+02  2.52255E-05  5.8E-07
  2.400E+00  4.38585E-04  3.27195E-15  1.16844E+02  2.60643E-05  4.1E-06
  2.500E+00  4.75889E-04  3.15738E-15  1.12752E+02  2.68579E-05  9.1E-07
  2.600E+00  5.14715E-04  3.04508E-15  1.08742E+02  2.75757E-05  4.0E-06
  2.700E+00  5.55063E-04  2.93532E-15  1.04822E+02  2.82203E-05  1.2E-06
  2.800E+00  5.96931E-04  2.82861E-15  1.01012E+02  2.88077E-05  3.9E-06
  2.900E+00  6.40321E-04  2.72476E-15  9.73030E+01  2.93190E-05  1.5E-06
  3.000E+00  6.85233E-04  2.62346E-15  9.36856E+01  2.97234E-05  3.8E-06
  3.100E+00  7.31665E-04  2.52496E-15  9.01680E+01  3.00255E-05  1.9E-06
  3.200E+00  7.79618E-04  2.42955E-15  8.67606E+01  3.02378E-05  3.7E-06
  3.300E+00  8.29092E-04  2.33704E-15  8.34570E+01  3.03356E-05  2.2E-06
  3.400E+00  8.80086E-04  2.24723E-15  8.02501E+01  3.02878E-05  3.5E-06
  3.500E+00  9.32601E-04  2.16031E-15  7.71461E+01  3.01015E-05  2.5E-06
  3.600E+00  9.86636E-04  2.07642E-15  7.41503E+01  2.97856E-05  3.4E-06
  3.700E+00  1.04219E-03  1.99537E-15  7.12561E+01  2.93090E-05  2.8E-06
  3.800E+00  1.09927E-03  1.91701E-15  6.84578E+01  2.86410E-05  3.2E-06
  3.900E+00  1.15786E-03  1.84146E-15  6.57596E+01  2.77911E-05  3.1E-06
  4.000E+00  1.21797E-03  1.76874E-15  6.31629E+01  2.67640E-05  3.0E-06
  4.100E+00  1.27961E-03  1.69869E-15  6.06612E+01  2.55224E-05  3.4E-06
  4.200E+00  1.34276E-03  1.63117E-15  5.82502E+01  2.40364E-05  2.7E-06
  4.300E+00  1.40743E-03  1.56625E-15  5.59319E+01  2.23183E-05  3.6E-06
  4.400E+00  1.47362E-03  1.50391E-15  5.37057E+01  2.03682E-05  2.5E-06
  4.500E+00  1.54133E-03  1.44398E-15  5.15655E+01  1.81422E-05  3.9E-06
  4.600E+00  1.61056E-03  1.38635E-15  4.95076E+01  1.56122E-05  2.2E-06
  4.700E+00  1.68131E-03  1.33105E-15  4.75328E+01  1.27937E-05  4.2E-06
  4.800E+00  1.75357E-03  1.27803E-15  4.56393E+01  9.68065E-06  1.9E-06
  4.900E+00  1.82735E-03  1.22713E-15  4.38215E+01  6.22308E-06  4.4E-06
  5.000E+00  1.90265E-03  1.17826E-15  4.20765E+01  2.39617E-06  1.6E-06
  5.100E+00  1.97947E-03  1.13143E-15  4.04043E+01 -1.78193E-06  4.6E-06
  5.200E+00  2.05780E-03  1.08657E-15  3.88022E+01 -6.32390E-06  1.3E-06
  5.300E+00  2.13765E-03  1.04355E-15  3.72658E+01 -1.12853E-05  4.8E-06
  5.400E+00  2.21902E-03  1.00229E-15  3.57926E+01 -1.66864E-05  9.0E-07
  5.500E+00  2.30190E-03  9.62791E-16  3.43819E+01 -2.25066E-05  5.0E-06
  5.600E+00  2.38630E-03  9.24966E-16  3.30311E+01 -2.87662E-05  5.1E-07
  5.700E+00  2.47222E-03  8.88711E-16  3.17364E+01 -3.55255E-05  5.2E-06
  5.800E+00  2.55965E-03  8.53971E-16  3.04958E+01 -4.27986E-05  1.0E-07
  5.900E+00  2.64859E-03  8.20720E-16  2.93084E+01 -5.05627E-05  5.3E-06
  6.000E+00  2.73905E-03  7.88888E-16  2.81717E+01 -5.88470E-05  3.3E-07
  6.100E+00  2.83103E-03  7.58387E-16  2.70825E+01 -6.77144E-05  5.4E-06
  6.200E+00  2.92452E-03  7.29171E-16  2.60392E+01 -7.71716E-05  7.7E-07
  6.300E+00  3.01952E-03  7.01213E-16  2.50408E+01 -8.71946E-05  5.4E-06
  6.400E+00  3.11604E-03  6.74446E-16  2.40849E+01 -9.78213E-05  1.2E-06
  6.500E+00  3.21407E-03  6.48802E-16  2.31691E+01 -1.09116E-04  5.4E-06
  6.600E+00  3.31362E-03  6.24243E-16  2.22921E+01 -1.21076E-04  1.7E-06
  6.700E+00  3.41468E-03  6.00738E-16  2.14528E+01 -1.33676E-04  5.4E-06
  6.800E+00  3.51725E-03  5.78232E-16  2.06491E+01 -1.46965E-04  2.2E-06
  6.900E+00  3.62133E-03  5.56669E-16  1.98790E+01 -1.61004E-04  5.4E-06
  7.000E+00  3.72692E-03  5.36019E-16  1.91416E+01 -1.75780E-04  2.7E-06
  7.100E+00  3.83403E-03  5.16251E-16  1.84356E+01 -1.91270E-04  5.3E-06
  7.200E+00  3.94265E-03  4.97317E-16  1.77595E+01 -2.07529E-04  3.2E-06
  7.300E+00  4.05278E-03  4.79175E-16  1.71116E+01 -2.24615E-04  5.1E-06
  7.400E+00  4.16442E-03  4.61798E-16  1.64911E+01 -2.42504E-04  3.7E-06
  7.500E+00  4.27757E-03  4.45157E-16  1.58968E+01 -2.61173E-04  5.0E-06
  7.600E+00  4.39223E-03  4.29214E-16  1.53275E+01 -2.80687E-04  4.1E-06
  7.700E+00  4.50840E-03  4.13934E-16  1.47818E+01 -3.01093E-04  4.7E-06
  7.800E+00  4.62608E-03  3.99294E-16  1.42591E+01 -3.22356E-04  4.6E-06
  7.900E+00  4.74527E-03  3.85269E-16  1.37582E+01 -3.44458E-04  4.5E-06
  8.000E+00  4.86597E-03  3.71827E-16  1.32782E+01 -3.67467E-04  5.1E-06
  8.100E+00  4.98817E-03  3.58940E-16  1.28180E+01 -3.91420E-04  4.2E-06
  8.200E+00  5.11188E-03  3.46589E-16  1.23769E+01 -4.16269E-04  5.5E-06
  8.300E+00  5.23711E-03  3.34750E-16  1.19542E+01 -4.42002E-04  3.8E-06
  8.400E+00  5.36383E-03  3.23399E-16  1.15488E+01 -4.68687E-04  6.0E-06
  8.500E+00  5.49207E-03  3.12513E-16  1.11601E+01 -4.96348E-04  3.4E-06
  8.600E+00  5.62181E-03  3.02075E-16  1.07873E+01 -5.24928E-04  6.4E-06
  8.700E+00  5.75306E-03  2.92064E-16  1.04298E+01 -5.54416E-04  2.9E-06
  8.800E+00  5.88581E-03  2.82461E-16  1.00869E+01 -5.84882E-04  6.8E-06
  8.900E+00  6.02007E-03  2.73248E-16  9.75786E+00 -6.16333E-04  2.5E-06
  9.000E+00  6.15583E-03  2.64408E-16  9.44220E+00 -6.48701E-04  7.1E-06
  9.100E+00  6.29310E-03  2.55926E-16  9.13927E+00 -6.81982E-04  1.9E-06
  9.200E+00  6.43187E-03  2.47785E-16  8.84855E+00 -7.16240E-04  7.4E-06
  9.300E+00  6.57214E-03  2.39971E-16  8.56951E+00 -7.51465E-04  1.4E-06
  9.400E+00  6.71392E-03  2.32469E-16  8.30160E+00 -7.87582E-04  7.7E-06
  9.500E+00  6.85720E-03  2.25264E-16  8.04434E+00 -8.24591E-04  7.7E-07
  9.600E+00  7.00198E-03  2.18347E-16  7.79730E+00 -8.62549E-04  7.9E-06
  9.700E+00  7.14827E-03  2.11703E-16  7.56006E+00 -9.01425E-04  1.4E-07
  9.800E+00  7.29605E-03  2.05320E-16  7.33211E+00 -9.41142E-04  8.0E-06
  9.900E+00  7.44534E-03  1.99186E-16  7.11305E+00 -9.81705E-04  5.1E-07
  1.000E+01  7.59612E-03  1.93292E-16  6.90260E+00 -1.02316E-03  8.2E-06
  1.025E+01  7.97965E-03  1.79537E-16  6.41140E+00 -1.13032E-03  4.6E-06
  1.050E+01  8.37255E-03  1.67066E-16  5.96603E+00 -1.24232E-03  2.6E-06
  1.075E+01  8.77480E-03  1.55739E-16  5.56154E+00 -1.35865E-03  8.2E-06
  1.100E+01  9.18641E-03  1.45443E-16  5.19386E+00 -1.47892E-03  7.8E-06
  1.125E+01  9.60736E-03  1.36069E-16  4.85912E+00 -1.60255E-03  1.6E-06
  1.150E+01  1.00376E-02  1.27519E-16  4.55377E+00 -1.72893E-03  6.1E-06
  1.175E+01  1.04773E-02  1.19714E-16  4.27505E+00 -1.85749E-03  9.5E-06
  1.200E+01  1.09262E-02  1.12572E-16  4.02003E+00 -1.98753E-03  6.0E-06
  1.225E+01  1.13844E-02  1.06027E-16  3.78630E+00 -2.11835E-03  2.2E-06
  1.250E+01  1.18520E-02  1.00023E-16  3.57188E+00 -2.24929E-03  9.0E-06
  1.275E+01  1.23288E-02  9.44987E-17  3.37461E+00 -2.37959E-03  9.3E-06
  1.300E+01  1.28150E-02  8.94097E-17  3.19288E+00 -2.50856E-03  2.7E-06
  1.325E+01  1.33104E-02  8.47154E-17  3.02524E+00 -2.63544E-03  6.2E-06
  1.350E+01  1.38150E-02  8.03707E-17  2.87009E+00 -2.75957E-03  1.1E-05
  1.375E+01  1.43290E-02  7.63473E-17  2.72641E+00 -2.88019E-03  7.4E-06
  1.400E+01  1.48521E-02  7.26135E-17  2.59307E+00 -2.99663E-03  1.6E-06
  1.425E+01  1.53845E-02  6.91375E-17  2.46895E+00 -3.10825E-03  9.6E-06
  1.450E+01  1.59262E-02  6.59015E-17  2.35339E+00 -3.21432E-03  1.1E-05
  1.475E+01  1.64770E-02  6.28799E-17  2.24548E+00 -3.31424E-03  3.8E-06
  1.500E+01  1.70371E-02  6.00518E-17  2.14449E+00 -3.40743E-03  6.0E-06
