 #
 # Subroutine ELSEPA. Elastic scattering of electrons and positrons
 #                    by neutral atoms and positive ions
 #
 # Projectile: electron
 # Kinetic energy = 4.50000E+03 eV = 1.65372E+02 a.u.
 #
 # Element: Hg,  Z =  80,  atomic weight = 2.00590E+02 g/mol
 #
 # Nuclear model: Fermi distribution
 #                Average radius = 6.26355E-13 cm
 #                Skin thickness = 5.46000E-14 cm
 #
 # Number of electrons = 80
 #
 # Electron density: Read from file z_080.den   
 #                   Number of data points =  763
 #                   Volume integral = 8.00000E+01
 #
 # Thomas-Fermi exchange potential
 #
 # Correlation-polarization potential (LDA):
 #                           Alpha = 5.10000E-24 cm**3
 #                            Bpol = 1.66771E+01
 #
 # Total elastic cross section = 1.28903E-16 cm**2 = 4.60322E+00 a0**2
 # 1st transport cross section = 1.37508E-17 cm**2 = 4.91049E-01 a0**2
 # 2nd transport cross section = 1.67226E-17 cm**2 = 5.97174E-01 a0**2
 #
 #
 # Differential cross section:                       MU=(1-COS(THETA))/2
 #
 #  THETA        MU          DCS          DCS        Sherman      error
 #  (deg)                 (cm**2/sr)   (a0**2/sr)    function
 #----------------------------------------------------------------------
  0.000E+00  0.00000E+00  8.48864E-15  3.03135E+02  0.00000E+00  2.4E-05
  1.000E-04  7.61557E-13  8.48864E-15  3.03135E+02  5.29197E-10  2.4E-05
  1.250E-04  1.18994E-12  8.48864E-15  3.03135E+02  6.61497E-10  2.4E-05
  1.500E-04  1.71346E-12  8.48864E-15  3.03135E+02  7.93796E-10  2.4E-05
  1.750E-04  2.33225E-12  8.48864E-15  3.03135E+02  9.26096E-10  2.4E-05
  2.000E-04  3.04617E-12  8.48864E-15  3.03135E+02  1.05839E-09  2.4E-05
  2.250E-04  3.85530E-12  8.48863E-15  3.03135E+02  1.19069E-09  2.4E-05
  2.500E-04  4.75964E-12  8.48863E-15  3.03135E+02  1.32299E-09  2.4E-05
  2.750E-04  5.75917E-12  8.48863E-15  3.03135E+02  1.45529E-09  2.4E-05
  3.000E-04  6.85391E-12  8.48863E-15  3.03135E+02  1.58759E-09  2.4E-05
  3.250E-04  8.04379E-12  8.48863E-15  3.03135E+02  1.71989E-09  2.4E-05
  3.500E-04  9.32893E-12  8.48863E-15  3.03135E+02  1.85219E-09  2.4E-05
  3.750E-04  1.07092E-11  8.48863E-15  3.03135E+02  1.98449E-09  2.4E-05
  4.000E-04  1.21847E-11  8.48863E-15  3.03135E+02  2.11679E-09  2.4E-05
  4.250E-04  1.37554E-11  8.48863E-15  3.03135E+02  2.24909E-09  2.4E-05
  4.500E-04  1.54213E-11  8.48863E-15  3.03135E+02  2.38139E-09  2.4E-05
  4.750E-04  1.71823E-11  8.48863E-15  3.03135E+02  2.51369E-09  2.4E-05
  5.000E-04  1.90386E-11  8.48863E-15  3.03134E+02  2.64598E-09  2.4E-05
  5.250E-04  2.09900E-11  8.48863E-15  3.03134E+02  2.77828E-09  2.4E-05
  5.500E-04  2.30367E-11  8.48863E-15  3.03134E+02  2.91058E-09  2.4E-05
  5.750E-04  2.51785E-11  8.48863E-15  3.03134E+02  3.04288E-09  2.4E-05
  6.000E-04  2.74156E-11  8.48863E-15  3.03134E+02  3.17518E-09  2.4E-05
  6.250E-04  2.97478E-11  8.48863E-15  3.03134E+02  3.30748E-09  2.4E-05
  6.500E-04  3.21752E-11  8.48863E-15  3.03134E+02  3.43978E-09  2.4E-05
  6.750E-04  3.46979E-11  8.48863E-15  3.03134E+02  3.57208E-09  2.4E-05
  7.000E-04  3.73157E-11  8.48862E-15  3.03134E+02  3.70437E-09  2.4E-05
  7.250E-04  4.00286E-11  8.48862E-15  3.03134E+02  3.83667E-09  2.4E-05
  7.500E-04  4.28368E-11  8.48862E-15  3.03134E+02  3.96897E-09  2.4E-05
  7.750E-04  4.57402E-11  8.48862E-15  3.03134E+02  4.10127E-09  2.4E-05
  8.000E-04  4.87388E-11  8.48862E-15  3.03134E+02  4.23357E-09  2.4E-05
  8.250E-04  5.18325E-11  8.48862E-15  3.03134E+02  4.36587E-09  2.4E-05
  8.500E-04  5.50215E-11  8.48862E-15  3.03134E+02  4.49816E-09  2.4E-05
  8.750E-04  5.83057E-11  8.48862E-15  3.03134E+02  4.63046E-09  2.4E-05
  9.000E-04  6.16850E-11  8.48862E-15  3.03134E+02  4.76276E-09  2.4E-05
  9.250E-04  6.51595E-11  8.48862E-15  3.03134E+02  4.89506E-09  2.4E-05
  9.500E-04  6.87293E-11  8.48862E-15  3.03134E+02  5.02736E-09  2.4E-05
  9.750E-04  7.23943E-11  8.48861E-15  3.03134E+02  5.15965E-09  2.4E-05
  1.000E-03  7.61544E-11  8.48861E-15  3.03134E+02  5.29195E-09  2.4E-05
  1.250E-03  1.18991E-10  8.48860E-15  3.03133E+02  6.61492E-09  2.4E-05
  1.500E-03  1.71347E-10  8.48859E-15  3.03133E+02  7.93788E-09  2.4E-05
  1.750E-03  2.33223E-10  8.48857E-15  3.03132E+02  9.26083E-09  2.4E-05
  2.000E-03  3.04617E-10  8.48855E-15  3.03131E+02  1.05838E-08  2.4E-05
  2.250E-03  3.85531E-10  8.48852E-15  3.03131E+02  1.19067E-08  2.4E-05
  2.500E-03  4.75965E-10  8.48849E-15  3.03130E+02  1.32296E-08  2.4E-05
  2.750E-03  5.75917E-10  8.48846E-15  3.03129E+02  1.45524E-08  2.4E-05
  3.000E-03  6.85389E-10  8.48843E-15  3.03127E+02  1.58753E-08  2.4E-05
  3.250E-03  8.04380E-10  8.48840E-15  3.03126E+02  1.71981E-08  2.4E-05
  3.500E-03  9.32891E-10  8.48836E-15  3.03125E+02  1.85209E-08  2.4E-05
  3.750E-03  1.07092E-09  8.48832E-15  3.03123E+02  1.98437E-08  2.4E-05
  4.000E-03  1.21847E-09  8.48827E-15  3.03122E+02  2.11664E-08  2.4E-05
  4.250E-03  1.37554E-09  8.48823E-15  3.03120E+02  2.24891E-08  2.4E-05
  4.500E-03  1.54213E-09  8.48818E-15  3.03118E+02  2.38118E-08  2.4E-05
  4.750E-03  1.71823E-09  8.48813E-15  3.03116E+02  2.51344E-08  2.4E-05
  5.000E-03  1.90386E-09  8.48807E-15  3.03115E+02  2.64570E-08  2.4E-05
  5.250E-03  2.09900E-09  8.48801E-15  3.03112E+02  2.77795E-08  2.4E-05
  5.500E-03  2.30367E-09  8.48795E-15  3.03110E+02  2.91020E-08  2.4E-05
  5.750E-03  2.51785E-09  8.48789E-15  3.03108E+02  3.04244E-08  2.4E-05
  6.000E-03  2.74156E-09  8.48782E-15  3.03106E+02  3.17468E-08  2.4E-05
  6.250E-03  2.97478E-09  8.48775E-15  3.03103E+02  3.30691E-08  2.4E-05
  6.500E-03  3.21752E-09  8.48768E-15  3.03101E+02  3.43914E-08  2.4E-05
  6.750E-03  3.46978E-09  8.48761E-15  3.03098E+02  3.57137E-08  2.4E-05
  7.000E-03  3.73156E-09  8.48753E-15  3.03095E+02  3.70358E-08  2.4E-05
  7.250E-03  4.00286E-09  8.48745E-15  3.03092E+02  3.83579E-08  2.4E-05
  7.500E-03  4.28368E-09  8.48736E-15  3.03089E+02  3.96800E-08  2.4E-05
  7.750E-03  4.57402E-09  8.48728E-15  3.03086E+02  4.10019E-08  2.4E-05
  8.000E-03  4.87388E-09  8.48719E-15  3.03083E+02  4.23239E-08  2.4E-05
  8.250E-03  5.18326E-09  8.48710E-15  3.03080E+02  4.36457E-08  2.4E-05
  8.500E-03  5.50215E-09  8.48700E-15  3.03076E+02  4.49675E-08  2.4E-05
  8.750E-03  5.83057E-09  8.48690E-15  3.03073E+02  4.62892E-08  2.4E-05
  9.000E-03  6.16850E-09  8.48680E-15  3.03069E+02  4.76108E-08  2.4E-05
  9.250E-03  6.51596E-09  8.48670E-15  3.03066E+02  4.89323E-08  2.4E-05
  9.500E-03  6.87293E-09  8.48660E-15  3.03062E+02  5.02538E-08  2.4E-05
  9.750E-03  7.23942E-09  8.48649E-15  3.03058E+02  5.15751E-08  2.4E-05
  1.000E-02  7.61544E-09  8.48638E-15  3.03054E+02  5.28964E-08  2.4E-05
  1.250E-02  1.18991E-08  8.48510E-15  3.03009E+02  6.61042E-08  2.4E-05
  1.500E-02  1.71347E-08  8.48355E-15  3.02953E+02  7.93010E-08  2.4E-05
  1.750E-02  2.33223E-08  8.48172E-15  3.02888E+02  9.24848E-08  2.4E-05
  2.000E-02  3.04617E-08  8.47961E-15  3.02812E+02  1.05653E-07  2.3E-05
  2.250E-02  3.85531E-08  8.47722E-15  3.02727E+02  1.18805E-07  2.3E-05
  2.500E-02  4.75965E-08  8.47455E-15  3.02632E+02  1.31936E-07  2.3E-05
  2.750E-02  5.75917E-08  8.47161E-15  3.02527E+02  1.45046E-07  2.3E-05
  3.000E-02  6.85389E-08  8.46839E-15  3.02412E+02  1.58133E-07  2.3E-05
  3.250E-02  8.04380E-08  8.46491E-15  3.02287E+02  1.71194E-07  2.2E-05
  3.500E-02  9.32891E-08  8.46114E-15  3.02153E+02  1.84227E-07  2.2E-05
  3.750E-02  1.07092E-07  8.45711E-15  3.02009E+02  1.97230E-07  2.2E-05
  4.000E-02  1.21847E-07  8.45282E-15  3.01856E+02  2.10202E-07  2.1E-05
  4.250E-02  1.37554E-07  8.44825E-15  3.01693E+02  2.23140E-07  2.1E-05
  4.500E-02  1.54213E-07  8.44343E-15  3.01520E+02  2.36042E-07  2.1E-05
  4.750E-02  1.71823E-07  8.43834E-15  3.01339E+02  2.48906E-07  2.0E-05
  5.000E-02  1.90386E-07  8.43300E-15  3.01148E+02  2.61731E-07  2.0E-05
  5.250E-02  2.09900E-07  8.42740E-15  3.00948E+02  2.74515E-07  2.0E-05
  5.500E-02  2.30367E-07  8.42155E-15  3.00739E+02  2.87256E-07  1.9E-05
  5.750E-02  2.51785E-07  8.41544E-15  3.00521E+02  2.99952E-07  1.9E-05
  6.000E-02  2.74156E-07  8.40909E-15  3.00294E+02  3.12601E-07  1.8E-05
  6.250E-02  2.97478E-07  8.40250E-15  3.00059E+02  3.25203E-07  1.8E-05
  6.500E-02  3.21752E-07  8.39566E-15  2.99815E+02  3.37754E-07  1.7E-05
  6.750E-02  3.46978E-07  8.38859E-15  2.99562E+02  3.50254E-07  1.7E-05
  7.000E-02  3.73156E-07  8.38128E-15  2.99301E+02  3.62701E-07  1.6E-05
  7.250E-02  4.00286E-07  8.37374E-15  2.99032E+02  3.75093E-07  1.6E-05
  7.500E-02  4.28368E-07  8.36598E-15  2.98754E+02  3.87429E-07  1.5E-05
  7.750E-02  4.57402E-07  8.35799E-15  2.98469E+02  3.99708E-07  1.5E-05
  8.000E-02  4.87388E-07  8.34978E-15  2.98176E+02  4.11928E-07  1.4E-05
  8.250E-02  5.18325E-07  8.34135E-15  2.97875E+02  4.24088E-07  1.4E-05
  8.500E-02  5.50215E-07  8.33271E-15  2.97566E+02  4.36187E-07  1.3E-05
  8.750E-02  5.83057E-07  8.32386E-15  2.97250E+02  4.48224E-07  1.3E-05
  9.000E-02  6.16850E-07  8.31480E-15  2.96927E+02  4.60197E-07  1.2E-05
  9.250E-02  6.51596E-07  8.30555E-15  2.96597E+02  4.72105E-07  1.1E-05
  9.500E-02  6.87293E-07  8.29610E-15  2.96259E+02  4.83948E-07  1.1E-05
  9.750E-02  7.23942E-07  8.28645E-15  2.95915E+02  4.95724E-07  1.0E-05
  1.000E-01  7.61543E-07  8.27662E-15  2.95564E+02  5.07432E-07  9.6E-06
  1.250E-01  1.18991E-06  8.16891E-15  2.91717E+02  6.20655E-07  3.6E-06
  1.500E-01  1.71347E-06  8.04732E-15  2.87375E+02  7.26636E-07  1.9E-06
  1.750E-01  2.33223E-06  7.91647E-15  2.82702E+02  8.25588E-07  6.4E-06
  2.000E-01  3.04617E-06  7.78077E-15  2.77857E+02  9.18381E-07  9.2E-06
  2.250E-01  3.85531E-06  7.64418E-15  2.72979E+02  1.00643E-06  1.0E-05
  2.500E-01  4.75964E-06  7.50993E-15  2.68184E+02  1.09150E-06  9.4E-06
  2.750E-01  5.75916E-06  7.38048E-15  2.63562E+02  1.17546E-06  7.0E-06
  3.000E-01  6.85388E-06  7.25744E-15  2.59168E+02  1.26000E-06  3.6E-06
  3.250E-01  8.04378E-06  7.14165E-15  2.55033E+02  1.34640E-06  2.5E-07
  3.500E-01  9.32888E-06  7.03325E-15  2.51162E+02  1.43530E-06  3.8E-06
  3.750E-01  1.07092E-05  6.93184E-15  2.47541E+02  1.52666E-06  6.5E-06
  4.000E-01  1.21846E-05  6.83666E-15  2.44142E+02  1.61979E-06  7.9E-06
  4.250E-01  1.37553E-05  6.74675E-15  2.40931E+02  1.71345E-06  7.9E-06
  4.500E-01  1.54212E-05  6.66109E-15  2.37872E+02  1.80611E-06  6.5E-06
  4.750E-01  1.71822E-05  6.57875E-15  2.34931E+02  1.89619E-06  4.0E-06
  5.000E-01  1.90385E-05  6.49898E-15  2.32083E+02  1.98230E-06  8.9E-07
  5.250E-01  2.09899E-05  6.42124E-15  2.29307E+02  2.06346E-06  2.2E-06
  5.500E-01  2.30365E-05  6.34523E-15  2.26592E+02  2.13924E-06  4.9E-06
  5.750E-01  2.51783E-05  6.27085E-15  2.23936E+02  2.20977E-06  6.6E-06
  6.000E-01  2.74153E-05  6.19817E-15  2.21341E+02  2.27573E-06  7.0E-06
  6.250E-01  2.97475E-05  6.12736E-15  2.18812E+02  2.33819E-06  6.2E-06
  6.500E-01  3.21749E-05  6.05860E-15  2.16357E+02  2.39843E-06  4.4E-06
  6.750E-01  3.46974E-05  5.99207E-15  2.13981E+02  2.45771E-06  1.8E-06
  7.000E-01  3.73152E-05  5.92785E-15  2.11687E+02  2.51708E-06  1.1E-06
  7.250E-01  4.00281E-05  5.86596E-15  2.09477E+02  2.57718E-06  3.6E-06
  7.500E-01  4.28362E-05  5.80629E-15  2.07346E+02  2.63819E-06  5.5E-06
  7.750E-01  4.57395E-05  5.74867E-15  2.05289E+02  2.69976E-06  6.4E-06
  8.000E-01  4.87380E-05  5.69284E-15  2.03295E+02  2.76115E-06  6.1E-06
  8.250E-01  5.18317E-05  5.63853E-15  2.01355E+02  2.82134E-06  4.7E-06
  8.500E-01  5.50205E-05  5.58548E-15  1.99461E+02  2.87921E-06  2.5E-06
  8.750E-01  5.83045E-05  5.53345E-15  1.97603E+02  2.93375E-06  1.0E-07
  9.000E-01  6.16838E-05  5.48227E-15  1.95775E+02  2.98422E-06  2.6E-06
  9.250E-01  6.51582E-05  5.43183E-15  1.93974E+02  3.03027E-06  4.6E-06
  9.500E-01  6.87277E-05  5.38210E-15  1.92198E+02  3.07196E-06  5.8E-06
  9.750E-01  7.23925E-05  5.33308E-15  1.90448E+02  3.10978E-06  5.9E-06
  1.000E+00  7.61524E-05  5.28483E-15  1.88725E+02  3.14452E-06  5.0E-06
  1.100E+00  9.21439E-05  5.10054E-15  1.82144E+02  3.27018E-06  3.7E-06
  1.200E+00  1.09658E-04  4.92962E-15  1.76040E+02  3.38827E-06  3.7E-06
  1.300E+00  1.28695E-04  4.76661E-15  1.70219E+02  3.46259E-06  4.5E-06
  1.400E+00  1.49255E-04  4.60838E-15  1.64568E+02  3.47186E-06  2.3E-06
  1.500E+00  1.71338E-04  4.45618E-15  1.59133E+02  3.44762E-06  5.0E-06
  1.600E+00  1.94942E-04  4.30953E-15  1.53896E+02  3.39324E-06  9.2E-07
  1.700E+00  2.20070E-04  4.16586E-15  1.48765E+02  3.26892E-06  5.1E-06
  1.800E+00  2.46720E-04  4.02485E-15  1.43730E+02  3.07149E-06  4.8E-07
  1.900E+00  2.74892E-04  3.88762E-15  1.38829E+02  2.82813E-06  4.9E-06
  2.000E+00  3.04586E-04  3.75354E-15  1.34041E+02  2.52196E-06  1.8E-06
  2.100E+00  3.35803E-04  3.62156E-15  1.29328E+02  2.11770E-06  4.3E-06
  2.200E+00  3.68542E-04  3.49226E-15  1.24711E+02  1.62675E-06  2.9E-06
  2.300E+00  4.02802E-04  3.36627E-15  1.20212E+02  1.06492E-06  3.5E-06
  2.400E+00  4.38585E-04  3.24301E-15  1.15810E+02  4.00147E-07  3.8E-06
  2.500E+00  4.75889E-04  3.12224E-15  1.11497E+02 -3.91803E-07  2.4E-06
  2.600E+00  5.14715E-04  3.00460E-15  1.07296E+02 -1.29071E-06  4.5E-06
  2.700E+00  5.55063E-04  2.89030E-15  1.03214E+02 -2.29724E-06  1.2E-06
  2.800E+00  5.96931E-04  2.77889E-15  9.92360E+01 -3.45159E-06  4.8E-06
  2.900E+00  6.40321E-04  2.67047E-15  9.53643E+01 -4.76294E-06  1.2E-07
  3.000E+00  6.85233E-04  2.56548E-15  9.16151E+01 -6.21021E-06  4.8E-06
  3.100E+00  7.31665E-04  2.46383E-15  8.79849E+01 -7.81297E-06  1.4E-06
  3.200E+00  7.79618E-04  2.36523E-15  8.44639E+01 -9.61079E-06  4.5E-06
  3.300E+00  8.29092E-04  2.26988E-15  8.10590E+01 -1.15971E-05  2.7E-06
  3.400E+00  8.80086E-04  2.17798E-15  7.77770E+01 -1.37587E-05  3.8E-06
  3.500E+00  9.32601E-04  2.08929E-15  7.46099E+01 -1.61323E-05  3.7E-06
  3.600E+00  9.86636E-04  2.00367E-15  7.15523E+01 -1.87479E-05  2.8E-06
  3.700E+00  1.04219E-03  1.92128E-15  6.86100E+01 -2.15872E-05  4.6E-06
  3.800E+00  1.09927E-03  1.84210E-15  6.57827E+01 -2.46531E-05  1.6E-06
  3.900E+00  1.15786E-03  1.76591E-15  6.30618E+01 -2.79931E-05  5.1E-06
  4.000E+00  1.21797E-03  1.69264E-15  6.04453E+01 -3.16205E-05  2.3E-07
  4.100E+00  1.27961E-03  1.62238E-15  5.79361E+01 -3.55133E-05  5.2E-06
  4.200E+00  1.34276E-03  1.55499E-15  5.55296E+01 -3.96953E-05  1.2E-06
  4.300E+00  1.40743E-03  1.49028E-15  5.32189E+01 -4.42144E-05  5.0E-06
  4.400E+00  1.47362E-03  1.42824E-15  5.10035E+01 -4.90650E-05  2.6E-06
  4.500E+00  1.54133E-03  1.36887E-15  4.88833E+01 -5.42320E-05  4.4E-06
  4.600E+00  1.61056E-03  1.31199E-15  4.68521E+01 -5.97596E-05  3.8E-06
  4.700E+00  1.68131E-03  1.25748E-15  4.49054E+01 -6.56847E-05  3.4E-06
  4.800E+00  1.75357E-03  1.20532E-15  4.30429E+01 -7.19857E-05  4.9E-06
  4.900E+00  1.82735E-03  1.15546E-15  4.12621E+01 -7.86654E-05  2.1E-06
  5.000E+00  1.90265E-03  1.10772E-15  3.95573E+01 -8.57809E-05  5.5E-06
  5.100E+00  1.97947E-03  1.06203E-15  3.79257E+01 -9.33484E-05  6.6E-07
  5.200E+00  2.05780E-03  1.01837E-15  3.63666E+01 -1.01340E-04  5.8E-06
  5.300E+00  2.13765E-03  9.76638E-16  3.48764E+01 -1.09782E-04  9.3E-07
  5.400E+00  2.21902E-03  9.36709E-16  3.34505E+01 -1.18734E-04  5.7E-06
  5.500E+00  2.30190E-03  8.98534E-16  3.20872E+01 -1.28185E-04  2.5E-06
  5.600E+00  2.38630E-03  8.62072E-16  3.07852E+01 -1.38115E-04  5.2E-06
  5.700E+00  2.47222E-03  8.27218E-16  2.95405E+01 -1.48575E-04  4.0E-06
  5.800E+00  2.55965E-03  7.93882E-16  2.83501E+01 -1.59607E-04  4.2E-06
  5.900E+00  2.64859E-03  7.62032E-16  2.72127E+01 -1.71183E-04  5.3E-06
  6.000E+00  2.73905E-03  7.31609E-16  2.61262E+01 -1.83299E-04  2.8E-06
  6.100E+00  2.83103E-03  7.02521E-16  2.50875E+01 -1.96024E-04  6.2E-06
  6.200E+00  2.92452E-03  6.74711E-16  2.40944E+01 -2.09371E-04  1.2E-06
  6.300E+00  3.01952E-03  6.48144E-16  2.31457E+01 -2.23302E-04  6.6E-06
  6.400E+00  3.11604E-03  6.22759E-16  2.22391E+01 -2.37842E-04  5.9E-07
  6.500E+00  3.21407E-03  5.98484E-16  2.13722E+01 -2.53058E-04  6.6E-06
  6.600E+00  3.31362E-03  5.75278E-16  2.05436E+01 -2.68931E-04  2.4E-06
  6.700E+00  3.41468E-03  5.53108E-16  1.97518E+01 -2.85428E-04  6.1E-06
  6.800E+00  3.51725E-03  5.31912E-16  1.89949E+01 -3.02604E-04  4.2E-06
  6.900E+00  3.62133E-03  5.11640E-16  1.82710E+01 -3.20502E-04  5.1E-06
  7.000E+00  3.72692E-03  4.92262E-16  1.75790E+01 -3.39078E-04  5.7E-06
  7.100E+00  3.83403E-03  4.73740E-16  1.69176E+01 -3.58321E-04  3.7E-06
  7.200E+00  3.94265E-03  4.56023E-16  1.62849E+01 -3.78298E-04  6.8E-06
  7.300E+00  4.05278E-03  4.39076E-16  1.56797E+01 -3.99020E-04  1.9E-06
  7.400E+00  4.16442E-03  4.22873E-16  1.51011E+01 -4.20429E-04  7.5E-06
  7.500E+00  4.27757E-03  4.07375E-16  1.45476E+01 -4.42545E-04  1.3E-07
  7.600E+00  4.39223E-03  3.92546E-16  1.40181E+01 -4.65429E-04  7.6E-06
  7.700E+00  4.50840E-03  3.78358E-16  1.35114E+01 -4.89052E-04  2.2E-06
  7.800E+00  4.62608E-03  3.64785E-16  1.30267E+01 -5.13364E-04  7.2E-06
  7.900E+00  4.74527E-03  3.51797E-16  1.25629E+01 -5.38410E-04  4.3E-06
  8.000E+00  4.86597E-03  3.39363E-16  1.21189E+01 -5.64228E-04  6.2E-06
  8.100E+00  4.98817E-03  3.27462E-16  1.16939E+01 -5.90754E-04  6.1E-06
  8.200E+00  5.11188E-03  3.16071E-16  1.12871E+01 -6.17961E-04  4.7E-06
  8.300E+00  5.23711E-03  3.05163E-16  1.08976E+01 -6.45910E-04  7.5E-06
  8.400E+00  5.36383E-03  2.94717E-16  1.05245E+01 -6.74594E-04  2.7E-06
  8.500E+00  5.49207E-03  2.84713E-16  1.01673E+01 -7.03937E-04  8.4E-06
  8.600E+00  5.62181E-03  2.75131E-16  9.82509E+00 -7.33944E-04  4.6E-07
  8.700E+00  5.75306E-03  2.65950E-16  9.49725E+00 -7.64663E-04  8.7E-06
  8.800E+00  5.88581E-03  2.57153E-16  9.18312E+00 -7.96047E-04  1.9E-06
  8.900E+00  6.02007E-03  2.48723E-16  8.88206E+00 -8.28027E-04  8.4E-06
  9.000E+00  6.15583E-03  2.40642E-16  8.59349E+00 -8.60633E-04  4.3E-06
  9.100E+00  6.29310E-03  2.32896E-16  8.31687E+00 -8.93884E-04  7.4E-06
  9.200E+00  6.43187E-03  2.25469E-16  8.05163E+00 -9.27699E-04  6.4E-06
  9.300E+00  6.57214E-03  2.18344E-16  7.79722E+00 -9.62036E-04  5.8E-06
  9.400E+00  6.71392E-03  2.11511E-16  7.55321E+00 -9.96931E-04  8.1E-06
  9.500E+00  6.85720E-03  2.04957E-16  7.31914E+00 -1.03236E-03  3.7E-06
  9.600E+00  7.00198E-03  1.98666E-16  7.09450E+00 -1.06824E-03  9.3E-06
  9.700E+00  7.14827E-03  1.92628E-16  6.87886E+00 -1.10455E-03  1.2E-06
  9.800E+00  7.29605E-03  1.86832E-16  6.67190E+00 -1.14132E-03  9.8E-06
  9.900E+00  7.44534E-03  1.81268E-16  6.47321E+00 -1.17848E-03  1.5E-06
  1.000E+01  7.59612E-03  1.75923E-16  6.28231E+00 -1.21596E-03  9.6E-06
  1.025E+01  7.97965E-03  1.63462E-16  5.83734E+00 -1.31103E-03  1.6E-06
  1.050E+01  8.37255E-03  1.52174E-16  5.43423E+00 -1.40749E-03  8.6E-06
  1.075E+01  8.77480E-03  1.41936E-16  5.06861E+00 -1.50478E-03  9.2E-06
  1.100E+01  9.18641E-03  1.32634E-16  4.73645E+00 -1.60224E-03  8.5E-07
  1.125E+01  9.60736E-03  1.24165E-16  4.43402E+00 -1.69916E-03  1.0E-05
  1.150E+01  1.00376E-02  1.16445E-16  4.15834E+00 -1.79490E-03  8.2E-06
  1.175E+01  1.04773E-02  1.09395E-16  3.90658E+00 -1.88875E-03  3.6E-06
  1.200E+01  1.09262E-02  1.02940E-16  3.67607E+00 -1.98000E-03  1.2E-05
  1.225E+01  1.13844E-02  9.70225E-17  3.46474E+00 -2.06796E-03  6.5E-06
  1.250E+01  1.18520E-02  9.15877E-17  3.27065E+00 -2.15195E-03  6.4E-06
  1.275E+01  1.23288E-02  8.65813E-17  3.09187E+00 -2.23131E-03  1.2E-05
  1.300E+01  1.28150E-02  8.19633E-17  2.92696E+00 -2.30538E-03  4.1E-06
  1.325E+01  1.33104E-02  7.76972E-17  2.77462E+00 -2.37352E-03  9.1E-06
  1.350E+01  1.38150E-02  7.37431E-17  2.63342E+00 -2.43515E-03  1.2E-05
  1.375E+01  1.43290E-02  7.00729E-17  2.50235E+00 -2.48969E-03  1.3E-06
  1.400E+01  1.48521E-02  6.66624E-17  2.38056E+00 -2.53652E-03  1.1E-05
  1.425E+01  1.53845E-02  6.34826E-17  2.26700E+00 -2.57518E-03  1.1E-05
  1.450E+01  1.59262E-02  6.05130E-17  2.16096E+00 -2.60514E-03  1.9E-06
  1.475E+01  1.64770E-02  5.77383E-17  2.06187E+00 -2.62583E-03  1.3E-05
  1.500E+01  1.70371E-02  5.51371E-17  1.96898E+00 -2.63685E-03  9.6E-06
