 #
 # Subroutine ELSEPA. Elastic scattering of electrons and positrons
 #                    by neutral atoms and positive ions
 #
 # Projectile: electron
 # Kinetic energy = 9.00000E+03 eV = 3.30744E+02 a.u.
 #
 # Element: Hg,  Z =  80,  atomic weight = 2.00590E+02 g/mol
 #
 # Nuclear model: Fermi distribution
 #                Average radius = 6.26355E-13 cm
 #                Skin thickness = 5.46000E-14 cm
 #
 # Number of electrons = 80
 #
 # Electron density: analytical TFD model
 #                   A1 =  1.19007D-01 ,   ALPHA1 = 2.60190D+01
 #                   A2 =  5.60270D-01 ,   ALPHA2 = 5.45128D+00
 #                   A3 =  3.20724D-01 ,   ALPHA3 = 1.55122D+00
 #                   Volume integral = 8.00000E+01
 #
 # Furness-McCarthy exchange potential
 #
 # Total elastic cross section = 1.05489E-16 cm**2 = 3.76708E+00 a0**2
 # 1st transport cross section = 5.48234E-18 cm**2 = 1.95778E-01 a0**2
 # 2nd transport cross section = 8.38966E-18 cm**2 = 2.99600E-01 a0**2
 #
 #
 # Differential cross section:                       MU=(1-COS(THETA))/2
 #
 #  THETA        MU          DCS          DCS        Sherman      error
 #  (deg)                 (cm**2/sr)   (a0**2/sr)    function
 #----------------------------------------------------------------------
  0.000E+00  0.00000E+00  9.23429E-15  3.29762E+02  0.00000E+00  1.0E-07
  1.000E-04  7.61557E-13  9.23429E-15  3.29762E+02 -8.88128E-10  1.0E-07
  1.250E-04  1.18994E-12  9.23429E-15  3.29762E+02 -1.11016E-09  1.0E-07
  1.500E-04  1.71346E-12  9.23429E-15  3.29762E+02 -1.33219E-09  1.0E-07
  1.750E-04  2.33225E-12  9.23429E-15  3.29762E+02 -1.55422E-09  1.0E-07
  2.000E-04  3.04617E-12  9.23429E-15  3.29762E+02 -1.77626E-09  1.0E-07
  2.250E-04  3.85530E-12  9.23429E-15  3.29762E+02 -1.99829E-09  1.0E-07
  2.500E-04  4.75964E-12  9.23429E-15  3.29762E+02 -2.22032E-09  1.0E-07
  2.750E-04  5.75917E-12  9.23429E-15  3.29762E+02 -2.44235E-09  1.0E-07
  3.000E-04  6.85391E-12  9.23429E-15  3.29762E+02 -2.66438E-09  1.0E-07
  3.250E-04  8.04379E-12  9.23429E-15  3.29762E+02 -2.88642E-09  1.0E-07
  3.500E-04  9.32893E-12  9.23429E-15  3.29762E+02 -3.10845E-09  1.0E-07
  3.750E-04  1.07092E-11  9.23429E-15  3.29762E+02 -3.33048E-09  1.0E-07
  4.000E-04  1.21847E-11  9.23429E-15  3.29762E+02 -3.55251E-09  1.0E-07
  4.250E-04  1.37554E-11  9.23429E-15  3.29762E+02 -3.77454E-09  1.0E-07
  4.500E-04  1.54213E-11  9.23429E-15  3.29762E+02 -3.99658E-09  1.0E-07
  4.750E-04  1.71823E-11  9.23429E-15  3.29762E+02 -4.21861E-09  1.0E-07
  5.000E-04  1.90386E-11  9.23429E-15  3.29762E+02 -4.44064E-09  1.0E-07
  5.250E-04  2.09900E-11  9.23429E-15  3.29762E+02 -4.66267E-09  1.0E-07
  5.500E-04  2.30367E-11  9.23429E-15  3.29762E+02 -4.88470E-09  1.0E-07
  5.750E-04  2.51785E-11  9.23429E-15  3.29762E+02 -5.10674E-09  1.0E-07
  6.000E-04  2.74156E-11  9.23429E-15  3.29762E+02 -5.32877E-09  1.0E-07
  6.250E-04  2.97478E-11  9.23429E-15  3.29762E+02 -5.55080E-09  1.0E-07
  6.500E-04  3.21752E-11  9.23429E-15  3.29762E+02 -5.77283E-09  1.0E-07
  6.750E-04  3.46979E-11  9.23429E-15  3.29762E+02 -5.99487E-09  1.0E-07
  7.000E-04  3.73157E-11  9.23429E-15  3.29762E+02 -6.21690E-09  1.0E-07
  7.250E-04  4.00286E-11  9.23429E-15  3.29762E+02 -6.43893E-09  1.0E-07
  7.500E-04  4.28368E-11  9.23429E-15  3.29762E+02 -6.66096E-09  1.0E-07
  7.750E-04  4.57402E-11  9.23429E-15  3.29762E+02 -6.88299E-09  1.0E-07
  8.000E-04  4.87388E-11  9.23429E-15  3.29762E+02 -7.10503E-09  1.0E-07
  8.250E-04  5.18325E-11  9.23429E-15  3.29762E+02 -7.32706E-09  1.0E-07
  8.500E-04  5.50215E-11  9.23429E-15  3.29762E+02 -7.54909E-09  1.0E-07
  8.750E-04  5.83057E-11  9.23429E-15  3.29762E+02 -7.77112E-09  1.0E-07
  9.000E-04  6.16850E-11  9.23429E-15  3.29762E+02 -7.99315E-09  1.0E-07
  9.250E-04  6.51595E-11  9.23429E-15  3.29762E+02 -8.21519E-09  1.0E-07
  9.500E-04  6.87293E-11  9.23429E-15  3.29762E+02 -8.43722E-09  1.0E-07
  9.750E-04  7.23943E-11  9.23429E-15  3.29762E+02 -8.65925E-09  1.0E-07
  1.000E-03  7.61544E-11  9.23429E-15  3.29762E+02 -8.88128E-09  1.0E-07
  1.250E-03  1.18991E-10  9.23428E-15  3.29762E+02 -1.11016E-08  1.0E-07
  1.500E-03  1.71347E-10  9.23428E-15  3.29762E+02 -1.33219E-08  1.0E-07
  1.750E-03  2.33223E-10  9.23428E-15  3.29762E+02 -1.55422E-08  1.0E-07
  2.000E-03  3.04617E-10  9.23428E-15  3.29762E+02 -1.77626E-08  1.0E-07
  2.250E-03  3.85531E-10  9.23428E-15  3.29762E+02 -1.99829E-08  1.0E-07
  2.500E-03  4.75965E-10  9.23428E-15  3.29762E+02 -2.22032E-08  1.0E-07
  2.750E-03  5.75917E-10  9.23427E-15  3.29762E+02 -2.44235E-08  1.0E-07
  3.000E-03  6.85389E-10  9.23427E-15  3.29762E+02 -2.66439E-08  1.0E-07
  3.250E-03  8.04380E-10  9.23427E-15  3.29762E+02 -2.88642E-08  1.0E-07
  3.500E-03  9.32891E-10  9.23427E-15  3.29762E+02 -3.10845E-08  1.0E-07
  3.750E-03  1.07092E-09  9.23426E-15  3.29762E+02 -3.33048E-08  1.0E-07
  4.000E-03  1.21847E-09  9.23426E-15  3.29761E+02 -3.55252E-08  1.0E-07
  4.250E-03  1.37554E-09  9.23426E-15  3.29761E+02 -3.77455E-08  1.0E-07
  4.500E-03  1.54213E-09  9.23425E-15  3.29761E+02 -3.99658E-08  1.0E-07
  4.750E-03  1.71823E-09  9.23425E-15  3.29761E+02 -4.21862E-08  1.0E-07
  5.000E-03  1.90386E-09  9.23424E-15  3.29761E+02 -4.44065E-08  1.0E-07
  5.250E-03  2.09900E-09  9.23424E-15  3.29761E+02 -4.66268E-08  1.0E-07
  5.500E-03  2.30367E-09  9.23423E-15  3.29761E+02 -4.88472E-08  1.0E-07
  5.750E-03  2.51785E-09  9.23423E-15  3.29760E+02 -5.10675E-08  1.0E-07
  6.000E-03  2.74156E-09  9.23422E-15  3.29760E+02 -5.32879E-08  1.0E-07
  6.250E-03  2.97478E-09  9.23422E-15  3.29760E+02 -5.55082E-08  1.0E-07
  6.500E-03  3.21752E-09  9.23421E-15  3.29760E+02 -5.77285E-08  1.0E-07
  6.750E-03  3.46978E-09  9.23421E-15  3.29760E+02 -5.99489E-08  1.0E-07
  7.000E-03  3.73156E-09  9.23420E-15  3.29759E+02 -6.21692E-08  1.0E-07
  7.250E-03  4.00286E-09  9.23420E-15  3.29759E+02 -6.43896E-08  1.0E-07
  7.500E-03  4.28368E-09  9.23419E-15  3.29759E+02 -6.66100E-08  1.0E-07
  7.750E-03  4.57402E-09  9.23418E-15  3.29759E+02 -6.88303E-08  1.0E-07
  8.000E-03  4.87388E-09  9.23418E-15  3.29758E+02 -7.10507E-08  1.0E-07
  8.250E-03  5.18326E-09  9.23417E-15  3.29758E+02 -7.32710E-08  1.0E-07
  8.500E-03  5.50215E-09  9.23416E-15  3.29758E+02 -7.54914E-08  1.0E-07
  8.750E-03  5.83057E-09  9.23415E-15  3.29758E+02 -7.77118E-08  1.0E-07
  9.000E-03  6.16850E-09  9.23415E-15  3.29757E+02 -7.99321E-08  1.0E-07
  9.250E-03  6.51596E-09  9.23414E-15  3.29757E+02 -8.21525E-08  1.0E-07
  9.500E-03  6.87293E-09  9.23413E-15  3.29757E+02 -8.43729E-08  1.0E-07
  9.750E-03  7.23942E-09  9.23412E-15  3.29756E+02 -8.65932E-08  1.0E-07
  1.000E-02  7.61544E-09  9.23411E-15  3.29756E+02 -8.88136E-08  1.0E-07
  1.250E-02  1.18991E-08  9.23402E-15  3.29753E+02 -1.11018E-07  1.0E-07
  1.500E-02  1.71347E-08  9.23390E-15  3.29748E+02 -1.33222E-07  1.0E-07
  1.750E-02  2.33223E-08  9.23375E-15  3.29743E+02 -1.55427E-07  1.0E-07
  2.000E-02  3.04617E-08  9.23359E-15  3.29738E+02 -1.77632E-07  1.0E-07
  2.250E-02  3.85531E-08  9.23341E-15  3.29731E+02 -1.99838E-07  1.0E-07
  2.500E-02  4.75965E-08  9.23320E-15  3.29724E+02 -2.22045E-07  1.0E-07
  2.750E-02  5.75917E-08  9.23297E-15  3.29715E+02 -2.44252E-07  1.0E-07
  3.000E-02  6.85389E-08  9.23272E-15  3.29706E+02 -2.66460E-07  1.0E-07
  3.250E-02  8.04380E-08  9.23245E-15  3.29697E+02 -2.88669E-07  1.0E-07
  3.500E-02  9.32891E-08  9.23215E-15  3.29686E+02 -3.10879E-07  1.0E-07
  3.750E-02  1.07092E-07  9.23184E-15  3.29675E+02 -3.33091E-07  1.0E-07
  4.000E-02  1.21847E-07  9.23150E-15  3.29663E+02 -3.55303E-07  1.0E-07
  4.250E-02  1.37554E-07  9.23114E-15  3.29650E+02 -3.77516E-07  1.0E-07
  4.500E-02  1.54213E-07  9.23076E-15  3.29636E+02 -3.99731E-07  1.0E-07
  4.750E-02  1.71823E-07  9.23036E-15  3.29622E+02 -4.21947E-07  1.0E-07
  5.000E-02  1.90386E-07  9.22993E-15  3.29607E+02 -4.44165E-07  1.0E-07
  5.250E-02  2.09900E-07  9.22949E-15  3.29591E+02 -4.66384E-07  1.0E-07
  5.500E-02  2.30367E-07  9.22902E-15  3.29574E+02 -4.88605E-07  1.0E-07
  5.750E-02  2.51785E-07  9.22853E-15  3.29557E+02 -5.10827E-07  1.0E-07
  6.000E-02  2.74156E-07  9.22802E-15  3.29539E+02 -5.33051E-07  1.0E-07
  6.250E-02  2.97478E-07  9.22749E-15  3.29520E+02 -5.55277E-07  1.0E-07
  6.500E-02  3.21752E-07  9.22693E-15  3.29500E+02 -5.77505E-07  1.0E-07
  6.750E-02  3.46978E-07  9.22636E-15  3.29479E+02 -5.99735E-07  1.0E-07
  7.000E-02  3.73156E-07  9.22576E-15  3.29458E+02 -6.21967E-07  1.0E-07
  7.250E-02  4.00286E-07  9.22514E-15  3.29436E+02 -6.44201E-07  1.0E-07
  7.500E-02  4.28368E-07  9.22450E-15  3.29413E+02 -6.66437E-07  1.0E-07
  7.750E-02  4.57402E-07  9.22384E-15  3.29389E+02 -6.88675E-07  1.0E-07
  8.000E-02  4.87388E-07  9.22315E-15  3.29365E+02 -7.10916E-07  1.0E-07
  8.250E-02  5.18325E-07  9.22244E-15  3.29339E+02 -7.33159E-07  1.0E-07
  8.500E-02  5.50215E-07  9.22172E-15  3.29313E+02 -7.55405E-07  1.0E-07
  8.750E-02  5.83057E-07  9.22097E-15  3.29287E+02 -7.77653E-07  1.0E-07
  9.000E-02  6.16850E-07  9.22020E-15  3.29259E+02 -7.99904E-07  1.0E-07
  9.250E-02  6.51596E-07  9.21940E-15  3.29231E+02 -8.22158E-07  1.0E-07
  9.500E-02  6.87293E-07  9.21859E-15  3.29202E+02 -8.44414E-07  1.0E-07
  9.750E-02  7.23942E-07  9.21775E-15  3.29172E+02 -8.66674E-07  1.0E-07
  1.000E-01  7.61543E-07  9.21689E-15  3.29141E+02 -8.88936E-07  1.0E-07
  1.250E-01  1.18991E-06  9.20713E-15  3.28793E+02 -1.11174E-06  1.0E-07
  1.500E-01  1.71347E-06  9.19522E-15  3.28367E+02 -1.33492E-06  1.0E-07
  1.750E-01  2.33223E-06  9.18117E-15  3.27866E+02 -1.55855E-06  1.0E-07
  2.000E-01  3.04617E-06  9.16500E-15  3.27288E+02 -1.78272E-06  1.0E-07
  2.250E-01  3.85531E-06  9.14672E-15  3.26635E+02 -2.00749E-06  1.0E-07
  2.500E-01  4.75964E-06  9.12635E-15  3.25908E+02 -2.23294E-06  1.0E-07
  2.750E-01  5.75916E-06  9.10392E-15  3.25107E+02 -2.45915E-06  1.0E-07
  3.000E-01  6.85388E-06  9.07944E-15  3.24233E+02 -2.68619E-06  1.0E-07
  3.250E-01  8.04378E-06  9.05294E-15  3.23286E+02 -2.91413E-06  1.0E-07
  3.500E-01  9.32888E-06  9.02444E-15  3.22269E+02 -3.14306E-06  1.0E-07
  3.750E-01  1.07092E-05  8.99398E-15  3.21181E+02 -3.37305E-06  1.0E-07
  4.000E-01  1.21846E-05  8.96158E-15  3.20024E+02 -3.60417E-06  1.0E-07
  4.250E-01  1.37553E-05  8.92728E-15  3.18799E+02 -3.83649E-06  1.0E-07
  4.500E-01  1.54212E-05  8.89110E-15  3.17507E+02 -4.07010E-06  1.0E-07
  4.750E-01  1.71822E-05  8.85309E-15  3.16150E+02 -4.30507E-06  1.0E-07
  5.000E-01  1.90385E-05  8.81327E-15  3.14728E+02 -4.54146E-06  1.0E-07
  5.250E-01  2.09899E-05  8.77170E-15  3.13243E+02 -4.77936E-06  1.0E-07
  5.500E-01  2.30365E-05  8.72839E-15  3.11697E+02 -5.01885E-06  1.0E-07
  5.750E-01  2.51783E-05  8.68341E-15  3.10090E+02 -5.25998E-06  1.0E-07
  6.000E-01  2.74153E-05  8.63678E-15  3.08425E+02 -5.50285E-06  1.0E-07
  6.250E-01  2.97475E-05  8.58855E-15  3.06703E+02 -5.74751E-06  1.0E-07
  6.500E-01  3.21749E-05  8.53876E-15  3.04925E+02 -5.99405E-06  1.0E-07
  6.750E-01  3.46974E-05  8.48747E-15  3.03093E+02 -6.24254E-06  1.0E-07
  7.000E-01  3.73152E-05  8.43471E-15  3.01209E+02 -6.49305E-06  1.0E-07
  7.250E-01  4.00281E-05  8.38052E-15  2.99274E+02 -6.74566E-06  1.0E-07
  7.500E-01  4.28362E-05  8.32497E-15  2.97290E+02 -7.00043E-06  1.0E-07
  7.750E-01  4.57395E-05  8.26809E-15  2.95259E+02 -7.25744E-06  1.0E-07
  8.000E-01  4.87380E-05  8.20994E-15  2.93182E+02 -7.51676E-06  1.0E-07
  8.250E-01  5.18317E-05  8.15055E-15  2.91062E+02 -7.77846E-06  1.0E-07
  8.500E-01  5.50205E-05  8.08999E-15  2.88899E+02 -8.04262E-06  1.0E-07
  8.750E-01  5.83045E-05  8.02830E-15  2.86696E+02 -8.30930E-06  1.0E-07
  9.000E-01  6.16838E-05  7.96553E-15  2.84454E+02 -8.57858E-06  1.0E-07
  9.250E-01  6.51582E-05  7.90172E-15  2.82176E+02 -8.85052E-06  1.0E-07
  9.500E-01  6.87277E-05  7.83694E-15  2.79862E+02 -9.12520E-06  1.0E-07
  9.750E-01  7.23925E-05  7.77123E-15  2.77516E+02 -9.40268E-06  1.0E-07
  1.000E+00  7.61524E-05  7.70464E-15  2.75138E+02 -9.68304E-06  1.0E-07
  1.100E+00  9.21439E-05  7.43045E-15  2.65346E+02 -1.08346E-05  1.0E-07
  1.200E+00  1.09658E-04  7.14609E-15  2.55192E+02 -1.20374E-05  1.0E-07
  1.300E+00  1.28695E-04  6.85457E-15  2.44781E+02 -1.32958E-05  1.0E-07
  1.400E+00  1.49255E-04  6.55874E-15  2.34217E+02 -1.46136E-05  1.0E-07
  1.500E+00  1.71338E-04  6.26123E-15  2.23593E+02 -1.59946E-05  1.0E-07
  1.600E+00  1.94942E-04  5.96445E-15  2.12994E+02 -1.74424E-05  1.0E-07
  1.700E+00  2.20070E-04  5.67052E-15  2.02498E+02 -1.89599E-05  1.0E-07
  1.800E+00  2.46720E-04  5.38132E-15  1.92171E+02 -2.05503E-05  1.0E-07
  1.900E+00  2.74892E-04  5.09846E-15  1.82069E+02 -2.22160E-05  1.0E-07
  2.000E+00  3.04586E-04  4.82326E-15  1.72242E+02 -2.39589E-05  1.0E-07
  2.100E+00  3.35803E-04  4.55681E-15  1.62727E+02 -2.57808E-05  1.0E-07
  2.200E+00  3.68542E-04  4.29998E-15  1.53555E+02 -2.76826E-05  1.0E-07
  2.300E+00  4.02802E-04  4.05338E-15  1.44749E+02 -2.96649E-05  1.0E-07
  2.400E+00  4.38585E-04  3.81747E-15  1.36324E+02 -3.17275E-05  1.0E-07
  2.500E+00  4.75889E-04  3.59251E-15  1.28291E+02 -3.38696E-05  1.0E-07
  2.600E+00  5.14715E-04  3.37862E-15  1.20653E+02 -3.60896E-05  1.0E-07
  2.700E+00  5.55063E-04  3.17580E-15  1.13410E+02 -3.83852E-05  1.0E-07
  2.800E+00  5.96931E-04  2.98392E-15  1.06558E+02 -4.07533E-05  1.0E-07
  2.900E+00  6.40321E-04  2.80277E-15  1.00089E+02 -4.31896E-05  1.0E-07
  3.000E+00  6.85233E-04  2.63208E-15  9.39933E+01 -4.56894E-05  1.0E-07
  3.100E+00  7.31665E-04  2.47151E-15  8.82592E+01 -4.82465E-05  1.0E-07
  3.200E+00  7.79618E-04  2.32068E-15  8.28730E+01 -5.08543E-05  1.0E-07
  3.300E+00  8.29092E-04  2.17918E-15  7.78199E+01 -5.35046E-05  1.0E-07
  3.400E+00  8.80086E-04  2.04658E-15  7.30847E+01 -5.61886E-05  1.0E-07
  3.500E+00  9.32601E-04  1.92244E-15  6.86515E+01 -5.88964E-05  1.0E-07
  3.600E+00  9.86636E-04  1.80631E-15  6.45044E+01 -6.16168E-05  1.0E-07
  3.700E+00  1.04219E-03  1.69774E-15  6.06275E+01 -6.43380E-05  1.0E-07
  3.800E+00  1.09927E-03  1.59631E-15  5.70051E+01 -6.70469E-05  1.0E-07
  3.900E+00  1.15786E-03  1.50157E-15  5.36220E+01 -6.97294E-05  1.0E-07
  4.000E+00  1.21797E-03  1.41312E-15  5.04633E+01 -7.23705E-05  1.0E-07
  4.100E+00  1.27961E-03  1.33055E-15  4.75148E+01 -7.49544E-05  1.0E-07
  4.200E+00  1.34276E-03  1.25348E-15  4.47627E+01 -7.74642E-05  1.0E-07
  4.300E+00  1.40743E-03  1.18156E-15  4.21942E+01 -7.98822E-05  1.0E-07
  4.400E+00  1.47362E-03  1.11442E-15  3.97968E+01 -8.21900E-05  1.0E-07
  4.500E+00  1.54133E-03  1.05176E-15  3.75589E+01 -8.43684E-05  1.0E-07
  4.600E+00  1.61056E-03  9.93247E-16  3.54695E+01 -8.63974E-05  1.0E-07
  4.700E+00  1.68131E-03  9.38606E-16  3.35182E+01 -8.82568E-05  1.0E-07
  4.800E+00  1.75357E-03  8.87563E-16  3.16954E+01 -8.99253E-05  1.0E-07
  4.900E+00  1.82735E-03  8.39864E-16  2.99921E+01 -9.13814E-05  1.0E-07
  5.000E+00  1.90265E-03  7.95272E-16  2.83997E+01 -9.26033E-05  1.0E-07
  5.100E+00  1.97947E-03  7.53567E-16  2.69104E+01 -9.35685E-05  1.0E-07
  5.200E+00  2.05780E-03  7.14543E-16  2.55168E+01 -9.42545E-05  1.0E-07
  5.300E+00  2.13765E-03  6.78009E-16  2.42121E+01 -9.46385E-05  1.0E-07
  5.400E+00  2.21902E-03  6.43789E-16  2.29901E+01 -9.46973E-05  1.0E-07
  5.500E+00  2.30190E-03  6.11716E-16  2.18448E+01 -9.44079E-05  1.0E-07
  5.600E+00  2.38630E-03  5.81640E-16  2.07707E+01 -9.37471E-05  1.0E-07
  5.700E+00  2.47222E-03  5.53419E-16  1.97629E+01 -9.26916E-05  1.0E-07
  5.800E+00  2.55965E-03  5.26921E-16  1.88167E+01 -9.12183E-05  1.0E-07
  5.900E+00  2.64859E-03  5.02026E-16  1.79277E+01 -8.93040E-05  1.0E-07
  6.000E+00  2.73905E-03  4.78621E-16  1.70919E+01 -8.69259E-05  1.0E-07
  6.100E+00  2.83103E-03  4.56603E-16  1.63056E+01 -8.40610E-05  1.0E-07
  6.200E+00  2.92452E-03  4.35876E-16  1.55654E+01 -8.06868E-05  1.0E-07
  6.300E+00  3.01952E-03  4.16351E-16  1.48682E+01 -7.67808E-05  1.0E-07
  6.400E+00  3.11604E-03  3.97947E-16  1.42109E+01 -7.23210E-05  1.0E-07
  6.500E+00  3.21407E-03  3.80586E-16  1.35910E+01 -6.72855E-05  1.0E-07
  6.600E+00  3.31362E-03  3.64199E-16  1.30058E+01 -6.16527E-05  1.0E-07
  6.700E+00  3.41468E-03  3.48721E-16  1.24530E+01 -5.54015E-05  1.0E-07
  6.800E+00  3.51725E-03  3.34091E-16  1.19306E+01 -4.85110E-05  1.0E-07
  6.900E+00  3.62133E-03  3.20255E-16  1.14365E+01 -4.09608E-05  1.0E-07
  7.000E+00  3.72692E-03  3.07160E-16  1.09689E+01 -3.27307E-05  1.0E-07
  7.100E+00  3.83403E-03  2.94758E-16  1.05260E+01 -2.38011E-05  1.0E-07
  7.200E+00  3.94265E-03  2.83006E-16  1.01063E+01 -1.41528E-05  1.0E-07
  7.300E+00  4.05278E-03  2.71861E-16  9.70834E+00 -3.76703E-06  1.0E-07
  7.400E+00  4.16442E-03  2.61287E-16  9.33072E+00  7.37460E-06  1.0E-07
  7.500E+00  4.27757E-03  2.51247E-16  8.97220E+00  1.92899E-05  1.0E-07
  7.600E+00  4.39223E-03  2.41709E-16  8.63160E+00  3.19962E-05  1.0E-07
  7.700E+00  4.50840E-03  2.32643E-16  8.30782E+00  4.55104E-05  1.0E-07
  7.800E+00  4.62608E-03  2.24019E-16  7.99987E+00  5.98488E-05  1.0E-07
  7.900E+00  4.74527E-03  2.15812E-16  7.70678E+00  7.50272E-05  1.0E-07
  8.000E+00  4.86597E-03  2.07997E-16  7.42770E+00  9.10607E-05  1.0E-07
  8.100E+00  4.98817E-03  2.00551E-16  7.16179E+00  1.07964E-04  1.0E-07
  8.200E+00  5.11188E-03  1.93452E-16  6.90831E+00  1.25751E-04  1.0E-07
  8.300E+00  5.23711E-03  1.86682E-16  6.66654E+00  1.44436E-04  1.0E-07
  8.400E+00  5.36383E-03  1.80221E-16  6.43581E+00  1.64031E-04  1.0E-07
  8.500E+00  5.49207E-03  1.74052E-16  6.21551E+00  1.84548E-04  1.0E-07
  8.600E+00  5.62181E-03  1.68159E-16  6.00507E+00  2.05998E-04  1.0E-07
  8.700E+00  5.75306E-03  1.62527E-16  5.80394E+00  2.28394E-04  1.0E-07
  8.800E+00  5.88581E-03  1.57141E-16  5.61162E+00  2.51745E-04  1.0E-07
  8.900E+00  6.02007E-03  1.51989E-16  5.42764E+00  2.76059E-04  1.0E-07
  9.000E+00  6.15583E-03  1.47058E-16  5.25155E+00  3.01347E-04  1.0E-07
  9.100E+00  6.29310E-03  1.42337E-16  5.08294E+00  3.27616E-04  1.0E-07
  9.200E+00  6.43187E-03  1.37814E-16  4.92142E+00  3.54874E-04  1.0E-07
  9.300E+00  6.57214E-03  1.33479E-16  4.76662E+00  3.83126E-04  1.0E-07
  9.400E+00  6.71392E-03  1.29323E-16  4.61821E+00  4.12378E-04  1.0E-07
  9.500E+00  6.85720E-03  1.25337E-16  4.47585E+00  4.42635E-04  1.0E-07
  9.600E+00  7.00198E-03  1.21512E-16  4.33926E+00  4.73902E-04  1.0E-07
  9.700E+00  7.14827E-03  1.17840E-16  4.20814E+00  5.06181E-04  1.0E-07
  9.800E+00  7.29605E-03  1.14314E-16  4.08222E+00  5.39476E-04  1.0E-07
  9.900E+00  7.44534E-03  1.10926E-16  3.96125E+00  5.73786E-04  1.0E-07
  1.000E+01  7.59612E-03  1.07671E-16  3.84500E+00  6.09113E-04  1.0E-07
  1.025E+01  7.97965E-03  1.00070E-16  3.57355E+00  7.01876E-04  1.0E-07
  1.050E+01  8.37255E-03  9.31660E-17  3.32702E+00  8.00962E-04  1.0E-07
  1.075E+01  8.77480E-03  8.68828E-17  3.10264E+00  9.06306E-04  1.0E-07
  1.100E+01  9.18641E-03  8.11528E-17  2.89802E+00  1.01781E-03  1.0E-07
  1.125E+01  9.60736E-03  7.59173E-17  2.71106E+00  1.13533E-03  1.0E-07
  1.150E+01  1.00376E-02  7.11247E-17  2.53991E+00  1.25869E-03  1.0E-07
  1.175E+01  1.04773E-02  6.67298E-17  2.38296E+00  1.38770E-03  1.0E-07
  1.200E+01  1.09262E-02  6.26927E-17  2.23880E+00  1.52209E-03  1.0E-07
  1.225E+01  1.13844E-02  5.89781E-17  2.10615E+00  1.66158E-03  1.0E-07
  1.250E+01  1.18520E-02  5.55549E-17  1.98390E+00  1.80587E-03  1.0E-07
  1.275E+01  1.23288E-02  5.23953E-17  1.87107E+00  1.95460E-03  1.0E-07
  1.300E+01  1.28150E-02  4.94747E-17  1.76677E+00  2.10740E-03  1.0E-07
  1.325E+01  1.33104E-02  4.67710E-17  1.67022E+00  2.26384E-03  1.0E-07
  1.350E+01  1.38150E-02  4.42647E-17  1.58072E+00  2.42350E-03  1.0E-07
  1.375E+01  1.43290E-02  4.19380E-17  1.49763E+00  2.58590E-03  1.0E-07
  1.400E+01  1.48521E-02  3.97754E-17  1.42040E+00  2.75055E-03  1.0E-07
  1.425E+01  1.53845E-02  3.77625E-17  1.34852E+00  2.91695E-03  1.0E-07
  1.450E+01  1.59262E-02  3.58867E-17  1.28154E+00  3.08456E-03  1.0E-07
  1.475E+01  1.64770E-02  3.41365E-17  1.21904E+00  3.25282E-03  1.0E-07
  1.500E+01  1.70371E-02  3.25015E-17  1.16065E+00  3.42116E-03  1.0E-07
