 #
 # Subroutine ELSEPA. Elastic scattering of electrons and positrons
 #                    by neutral atoms and positive ions
 #
 # Projectile: electron
 # Kinetic energy = 1.50000E+01 eV = 5.51240E-01 a.u.
 #
 #  ***  WARNING: Energy is too low.
 #                The reliability of the results is questionable.
 #
 # Element: Hg,  Z =  80,  atomic weight = 2.00590E+02 g/mol
 #
 # Nuclear model: Fermi distribution
 #                Average radius = 6.26355E-13 cm
 #                Skin thickness = 5.46000E-14 cm
 #
 # Number of electrons = 80
 #
 # Electron density: analytical TFD model
 #                   A1 =  1.19007D-01 ,   ALPHA1 = 2.60190D+01
 #                   A2 =  5.60270D-01 ,   ALPHA2 = 5.45128D+00
 #                   A3 =  3.20724D-01 ,   ALPHA3 = 1.55122D+00
 #                   Volume integral = 8.00000E+01
 #
 # Furness-McCarthy exchange potential
 #
 # Total elastic cross section = 1.20207E-15 cm**2 = 4.29266E+01 a0**2
 # 1st transport cross section = 4.22737E-16 cm**2 = 1.50962E+01 a0**2
 # 2nd transport cross section = 4.40717E-16 cm**2 = 1.57383E+01 a0**2
 #
 #
 # Differential cross section:                       MU=(1-COS(THETA))/2
 #
 #  THETA        MU          DCS          DCS        Sherman      error
 #  (deg)                 (cm**2/sr)   (a0**2/sr)    function
 #----------------------------------------------------------------------
  0.000E+00  0.00000E+00  1.29341E-15  4.61886E+01  0.00000E+00  1.0E-07
  1.000E-04  7.61557E-13  1.29341E-15  4.61886E+01  1.65616E-07  1.0E-07
  1.250E-04  1.18994E-12  1.29341E-15  4.61886E+01  2.07020E-07  1.0E-07
  1.500E-04  1.71346E-12  1.29341E-15  4.61886E+01  2.48424E-07  1.0E-07
  1.750E-04  2.33225E-12  1.29341E-15  4.61886E+01  2.89828E-07  1.0E-07
  2.000E-04  3.04617E-12  1.29341E-15  4.61886E+01  3.31232E-07  1.0E-07
  2.250E-04  3.85530E-12  1.29341E-15  4.61886E+01  3.72636E-07  1.0E-07
  2.500E-04  4.75964E-12  1.29341E-15  4.61886E+01  4.14040E-07  1.0E-07
  2.750E-04  5.75917E-12  1.29341E-15  4.61886E+01  4.55444E-07  1.0E-07
  3.000E-04  6.85391E-12  1.29341E-15  4.61886E+01  4.96847E-07  1.0E-07
  3.250E-04  8.04379E-12  1.29341E-15  4.61886E+01  5.38251E-07  1.0E-07
  3.500E-04  9.32893E-12  1.29341E-15  4.61886E+01  5.79655E-07  1.0E-07
  3.750E-04  1.07092E-11  1.29341E-15  4.61886E+01  6.21059E-07  1.0E-07
  4.000E-04  1.21847E-11  1.29341E-15  4.61886E+01  6.62463E-07  1.0E-07
  4.250E-04  1.37554E-11  1.29341E-15  4.61886E+01  7.03867E-07  1.0E-07
  4.500E-04  1.54213E-11  1.29341E-15  4.61886E+01  7.45271E-07  1.0E-07
  4.750E-04  1.71823E-11  1.29341E-15  4.61886E+01  7.86675E-07  1.0E-07
  5.000E-04  1.90386E-11  1.29341E-15  4.61886E+01  8.28079E-07  1.0E-07
  5.250E-04  2.09900E-11  1.29341E-15  4.61886E+01  8.69483E-07  1.0E-07
  5.500E-04  2.30367E-11  1.29341E-15  4.61886E+01  9.10887E-07  1.0E-07
  5.750E-04  2.51785E-11  1.29341E-15  4.61886E+01  9.52291E-07  1.0E-07
  6.000E-04  2.74156E-11  1.29341E-15  4.61886E+01  9.93695E-07  1.0E-07
  6.250E-04  2.97478E-11  1.29341E-15  4.61886E+01  1.03510E-06  1.0E-07
  6.500E-04  3.21752E-11  1.29341E-15  4.61886E+01  1.07650E-06  1.0E-07
  6.750E-04  3.46979E-11  1.29341E-15  4.61886E+01  1.11791E-06  1.0E-07
  7.000E-04  3.73157E-11  1.29341E-15  4.61886E+01  1.15931E-06  1.0E-07
  7.250E-04  4.00286E-11  1.29341E-15  4.61886E+01  1.20071E-06  1.0E-07
  7.500E-04  4.28368E-11  1.29341E-15  4.61886E+01  1.24212E-06  1.0E-07
  7.750E-04  4.57402E-11  1.29341E-15  4.61886E+01  1.28352E-06  1.0E-07
  8.000E-04  4.87388E-11  1.29341E-15  4.61886E+01  1.32493E-06  1.0E-07
  8.250E-04  5.18325E-11  1.29341E-15  4.61886E+01  1.36633E-06  1.0E-07
  8.500E-04  5.50215E-11  1.29341E-15  4.61886E+01  1.40773E-06  1.0E-07
  8.750E-04  5.83057E-11  1.29341E-15  4.61886E+01  1.44914E-06  1.0E-07
  9.000E-04  6.16850E-11  1.29341E-15  4.61886E+01  1.49054E-06  1.0E-07
  9.250E-04  6.51595E-11  1.29341E-15  4.61886E+01  1.53195E-06  1.0E-07
  9.500E-04  6.87293E-11  1.29341E-15  4.61886E+01  1.57335E-06  1.0E-07
  9.750E-04  7.23943E-11  1.29341E-15  4.61886E+01  1.61475E-06  1.0E-07
  1.000E-03  7.61544E-11  1.29341E-15  4.61886E+01  1.65616E-06  1.0E-07
  1.250E-03  1.18991E-10  1.29341E-15  4.61886E+01  2.07020E-06  1.0E-07
  1.500E-03  1.71347E-10  1.29341E-15  4.61886E+01  2.48424E-06  1.0E-07
  1.750E-03  2.33223E-10  1.29341E-15  4.61886E+01  2.89828E-06  1.0E-07
  2.000E-03  3.04617E-10  1.29341E-15  4.61886E+01  3.31232E-06  1.0E-07
  2.250E-03  3.85531E-10  1.29341E-15  4.61886E+01  3.72636E-06  1.0E-07
  2.500E-03  4.75965E-10  1.29341E-15  4.61886E+01  4.14040E-06  1.0E-07
  2.750E-03  5.75917E-10  1.29341E-15  4.61886E+01  4.55444E-06  1.0E-07
  3.000E-03  6.85389E-10  1.29341E-15  4.61886E+01  4.96847E-06  1.0E-07
  3.250E-03  8.04380E-10  1.29341E-15  4.61886E+01  5.38251E-06  1.0E-07
  3.500E-03  9.32891E-10  1.29341E-15  4.61886E+01  5.79655E-06  1.0E-07
  3.750E-03  1.07092E-09  1.29341E-15  4.61886E+01  6.21059E-06  1.0E-07
  4.000E-03  1.21847E-09  1.29341E-15  4.61886E+01  6.62463E-06  1.0E-07
  4.250E-03  1.37554E-09  1.29341E-15  4.61886E+01  7.03867E-06  1.0E-07
  4.500E-03  1.54213E-09  1.29341E-15  4.61886E+01  7.45271E-06  1.0E-07
  4.750E-03  1.71823E-09  1.29341E-15  4.61886E+01  7.86675E-06  1.0E-07
  5.000E-03  1.90386E-09  1.29341E-15  4.61886E+01  8.28079E-06  1.0E-07
  5.250E-03  2.09900E-09  1.29341E-15  4.61886E+01  8.69483E-06  1.0E-07
  5.500E-03  2.30367E-09  1.29341E-15  4.61886E+01  9.10887E-06  1.0E-07
  5.750E-03  2.51785E-09  1.29341E-15  4.61886E+01  9.52291E-06  1.0E-07
  6.000E-03  2.74156E-09  1.29341E-15  4.61886E+01  9.93695E-06  1.0E-07
  6.250E-03  2.97478E-09  1.29341E-15  4.61886E+01  1.03510E-05  1.0E-07
  6.500E-03  3.21752E-09  1.29341E-15  4.61886E+01  1.07650E-05  1.0E-07
  6.750E-03  3.46978E-09  1.29341E-15  4.61886E+01  1.11791E-05  1.0E-07
  7.000E-03  3.73156E-09  1.29341E-15  4.61886E+01  1.15931E-05  1.0E-07
  7.250E-03  4.00286E-09  1.29341E-15  4.61886E+01  1.20071E-05  1.0E-07
  7.500E-03  4.28368E-09  1.29341E-15  4.61886E+01  1.24212E-05  1.0E-07
  7.750E-03  4.57402E-09  1.29341E-15  4.61886E+01  1.28352E-05  1.0E-07
  8.000E-03  4.87388E-09  1.29341E-15  4.61886E+01  1.32493E-05  1.0E-07
  8.250E-03  5.18326E-09  1.29341E-15  4.61886E+01  1.36633E-05  1.0E-07
  8.500E-03  5.50215E-09  1.29341E-15  4.61886E+01  1.40773E-05  1.0E-07
  8.750E-03  5.83057E-09  1.29341E-15  4.61886E+01  1.44914E-05  1.0E-07
  9.000E-03  6.16850E-09  1.29341E-15  4.61886E+01  1.49054E-05  1.0E-07
  9.250E-03  6.51596E-09  1.29341E-15  4.61886E+01  1.53195E-05  1.0E-07
  9.500E-03  6.87293E-09  1.29341E-15  4.61886E+01  1.57335E-05  1.0E-07
  9.750E-03  7.23942E-09  1.29341E-15  4.61886E+01  1.61475E-05  1.0E-07
  1.000E-02  7.61544E-09  1.29341E-15  4.61886E+01  1.65616E-05  1.0E-07
  1.250E-02  1.18991E-08  1.29341E-15  4.61886E+01  2.07020E-05  1.0E-07
  1.500E-02  1.71347E-08  1.29341E-15  4.61886E+01  2.48424E-05  1.0E-07
  1.750E-02  2.33223E-08  1.29341E-15  4.61886E+01  2.89828E-05  1.0E-07
  2.000E-02  3.04617E-08  1.29341E-15  4.61886E+01  3.31232E-05  1.0E-07
  2.250E-02  3.85531E-08  1.29341E-15  4.61886E+01  3.72636E-05  1.0E-07
  2.500E-02  4.75965E-08  1.29341E-15  4.61886E+01  4.14040E-05  1.0E-07
  2.750E-02  5.75917E-08  1.29341E-15  4.61886E+01  4.55444E-05  1.0E-07
  3.000E-02  6.85389E-08  1.29341E-15  4.61885E+01  4.96848E-05  1.0E-07
  3.250E-02  8.04380E-08  1.29341E-15  4.61885E+01  5.38252E-05  1.0E-07
  3.500E-02  9.32891E-08  1.29341E-15  4.61885E+01  5.79656E-05  1.0E-07
  3.750E-02  1.07092E-07  1.29341E-15  4.61885E+01  6.21060E-05  1.0E-07
  4.000E-02  1.21847E-07  1.29341E-15  4.61885E+01  6.62464E-05  1.0E-07
  4.250E-02  1.37554E-07  1.29341E-15  4.61885E+01  7.03868E-05  1.0E-07
  4.500E-02  1.54213E-07  1.29341E-15  4.61885E+01  7.45272E-05  1.0E-07
  4.750E-02  1.71823E-07  1.29341E-15  4.61885E+01  7.86676E-05  1.0E-07
  5.000E-02  1.90386E-07  1.29341E-15  4.61885E+01  8.28080E-05  1.0E-07
  5.250E-02  2.09900E-07  1.29341E-15  4.61884E+01  8.69484E-05  1.0E-07
  5.500E-02  2.30367E-07  1.29341E-15  4.61884E+01  9.10888E-05  1.0E-07
  5.750E-02  2.51785E-07  1.29341E-15  4.61884E+01  9.52292E-05  1.0E-07
  6.000E-02  2.74156E-07  1.29341E-15  4.61884E+01  9.93696E-05  1.0E-07
  6.250E-02  2.97478E-07  1.29341E-15  4.61884E+01  1.03510E-04  1.0E-07
  6.500E-02  3.21752E-07  1.29341E-15  4.61884E+01  1.07650E-04  1.0E-07
  6.750E-02  3.46978E-07  1.29341E-15  4.61884E+01  1.11791E-04  1.0E-07
  7.000E-02  3.73156E-07  1.29341E-15  4.61883E+01  1.15931E-04  1.0E-07
  7.250E-02  4.00286E-07  1.29340E-15  4.61883E+01  1.20072E-04  1.0E-07
  7.500E-02  4.28368E-07  1.29340E-15  4.61883E+01  1.24212E-04  1.0E-07
  7.750E-02  4.57402E-07  1.29340E-15  4.61883E+01  1.28353E-04  1.0E-07
  8.000E-02  4.87388E-07  1.29340E-15  4.61883E+01  1.32493E-04  1.0E-07
  8.250E-02  5.18325E-07  1.29340E-15  4.61882E+01  1.36633E-04  1.0E-07
  8.500E-02  5.50215E-07  1.29340E-15  4.61882E+01  1.40774E-04  1.0E-07
  8.750E-02  5.83057E-07  1.29340E-15  4.61882E+01  1.44914E-04  1.0E-07
  9.000E-02  6.16850E-07  1.29340E-15  4.61882E+01  1.49055E-04  1.0E-07
  9.250E-02  6.51596E-07  1.29340E-15  4.61881E+01  1.53195E-04  1.0E-07
  9.500E-02  6.87293E-07  1.29340E-15  4.61881E+01  1.57336E-04  1.0E-07
  9.750E-02  7.23942E-07  1.29340E-15  4.61881E+01  1.61476E-04  1.0E-07
  1.000E-01  7.61543E-07  1.29340E-15  4.61881E+01  1.65617E-04  1.0E-07
  1.250E-01  1.18991E-06  1.29339E-15  4.61878E+01  2.07021E-04  1.0E-07
  1.500E-01  1.71347E-06  1.29338E-15  4.61874E+01  2.48426E-04  1.0E-07
  1.750E-01  2.33223E-06  1.29337E-15  4.61870E+01  2.89832E-04  1.0E-07
  2.000E-01  3.04617E-06  1.29335E-15  4.61865E+01  3.31237E-04  1.0E-07
  2.250E-01  3.85531E-06  1.29334E-15  4.61859E+01  3.72644E-04  1.0E-07
  2.500E-01  4.75964E-06  1.29332E-15  4.61853E+01  4.14051E-04  1.0E-07
  2.750E-01  5.75916E-06  1.29330E-15  4.61846E+01  4.55458E-04  1.0E-07
  3.000E-01  6.85388E-06  1.29328E-15  4.61838E+01  4.96867E-04  1.0E-07
  3.250E-01  8.04378E-06  1.29326E-15  4.61830E+01  5.38276E-04  1.0E-07
  3.500E-01  9.32888E-06  1.29323E-15  4.61821E+01  5.79686E-04  1.0E-07
  3.750E-01  1.07092E-05  1.29320E-15  4.61812E+01  6.21097E-04  1.0E-07
  4.000E-01  1.21846E-05  1.29318E-15  4.61802E+01  6.62509E-04  1.0E-07
  4.250E-01  1.37553E-05  1.29315E-15  4.61791E+01  7.03922E-04  1.0E-07
  4.500E-01  1.54212E-05  1.29311E-15  4.61779E+01  7.45336E-04  1.0E-07
  4.750E-01  1.71822E-05  1.29308E-15  4.61767E+01  7.86752E-04  1.0E-07
  5.000E-01  1.90385E-05  1.29304E-15  4.61754E+01  8.28168E-04  1.0E-07
  5.250E-01  2.09899E-05  1.29301E-15  4.61741E+01  8.69586E-04  1.0E-07
  5.500E-01  2.30365E-05  1.29297E-15  4.61726E+01  9.11006E-04  1.0E-07
  5.750E-01  2.51783E-05  1.29292E-15  4.61712E+01  9.52427E-04  1.0E-07
  6.000E-01  2.74153E-05  1.29288E-15  4.61696E+01  9.93849E-04  1.0E-07
  6.250E-01  2.97475E-05  1.29284E-15  4.61680E+01  1.03527E-03  1.0E-07
  6.500E-01  3.21749E-05  1.29279E-15  4.61663E+01  1.07670E-03  1.0E-07
  6.750E-01  3.46974E-05  1.29274E-15  4.61646E+01  1.11813E-03  1.0E-07
  7.000E-01  3.73152E-05  1.29269E-15  4.61628E+01  1.15956E-03  1.0E-07
  7.250E-01  4.00281E-05  1.29264E-15  4.61609E+01  1.20099E-03  1.0E-07
  7.500E-01  4.28362E-05  1.29258E-15  4.61589E+01  1.24242E-03  1.0E-07
  7.750E-01  4.57395E-05  1.29253E-15  4.61569E+01  1.28385E-03  1.0E-07
  8.000E-01  4.87380E-05  1.29247E-15  4.61549E+01  1.32529E-03  1.0E-07
  8.250E-01  5.18317E-05  1.29241E-15  4.61527E+01  1.36673E-03  1.0E-07
  8.500E-01  5.50205E-05  1.29235E-15  4.61505E+01  1.40817E-03  1.0E-07
  8.750E-01  5.83045E-05  1.29228E-15  4.61482E+01  1.44962E-03  1.0E-07
  9.000E-01  6.16838E-05  1.29222E-15  4.61459E+01  1.49106E-03  1.0E-07
  9.250E-01  6.51582E-05  1.29215E-15  4.61435E+01  1.53251E-03  1.0E-07
  9.500E-01  6.87277E-05  1.29208E-15  4.61410E+01  1.57396E-03  1.0E-07
  9.750E-01  7.23925E-05  1.29201E-15  4.61385E+01  1.61542E-03  1.0E-07
  1.000E+00  7.61524E-05  1.29194E-15  4.61359E+01  1.65687E-03  1.0E-07
  1.100E+00  9.21439E-05  1.29163E-15  4.61248E+01  1.82272E-03  1.0E-07
  1.200E+00  1.09658E-04  1.29129E-15  4.61127E+01  1.98862E-03  1.0E-07
  1.300E+00  1.28695E-04  1.29092E-15  4.60996E+01  2.15457E-03  1.0E-07
  1.400E+00  1.49255E-04  1.29052E-15  4.60853E+01  2.32058E-03  1.0E-07
  1.500E+00  1.71338E-04  1.29009E-15  4.60701E+01  2.48665E-03  1.0E-07
  1.600E+00  1.94942E-04  1.28964E-15  4.60538E+01  2.65278E-03  1.0E-07
  1.700E+00  2.20070E-04  1.28915E-15  4.60364E+01  2.81898E-03  1.0E-07
  1.800E+00  2.46720E-04  1.28864E-15  4.60180E+01  2.98525E-03  1.0E-07
  1.900E+00  2.74892E-04  1.28809E-15  4.59986E+01  3.15160E-03  1.0E-07
  2.000E+00  3.04586E-04  1.28752E-15  4.59781E+01  3.31803E-03  1.0E-07
  2.100E+00  3.35803E-04  1.28692E-15  4.59566E+01  3.48455E-03  1.0E-07
  2.200E+00  3.68542E-04  1.28628E-15  4.59340E+01  3.65116E-03  1.0E-07
  2.300E+00  4.02802E-04  1.28562E-15  4.59104E+01  3.81786E-03  1.0E-07
  2.400E+00  4.38585E-04  1.28493E-15  4.58858E+01  3.98466E-03  1.0E-07
  2.500E+00  4.75889E-04  1.28421E-15  4.58601E+01  4.15156E-03  1.0E-07
  2.600E+00  5.14715E-04  1.28347E-15  4.58334E+01  4.31857E-03  1.0E-07
  2.700E+00  5.55063E-04  1.28269E-15  4.58057E+01  4.48570E-03  1.0E-07
  2.800E+00  5.96931E-04  1.28188E-15  4.57769E+01  4.65294E-03  1.0E-07
  2.900E+00  6.40321E-04  1.28105E-15  4.57471E+01  4.82030E-03  1.0E-07
  3.000E+00  6.85233E-04  1.28019E-15  4.57163E+01  4.98778E-03  1.0E-07
  3.100E+00  7.31665E-04  1.27930E-15  4.56845E+01  5.15540E-03  1.0E-07
  3.200E+00  7.79618E-04  1.27838E-15  4.56516E+01  5.32314E-03  1.0E-07
  3.300E+00  8.29092E-04  1.27743E-15  4.56177E+01  5.49103E-03  1.0E-07
  3.400E+00  8.80086E-04  1.27645E-15  4.55828E+01  5.65906E-03  1.0E-07
  3.500E+00  9.32601E-04  1.27544E-15  4.55469E+01  5.82723E-03  1.0E-07
  3.600E+00  9.86636E-04  1.27441E-15  4.55100E+01  5.99556E-03  1.0E-07
  3.700E+00  1.04219E-03  1.27335E-15  4.54721E+01  6.16404E-03  1.0E-07
  3.800E+00  1.09927E-03  1.27226E-15  4.54331E+01  6.33268E-03  1.0E-07
  3.900E+00  1.15786E-03  1.27114E-15  4.53932E+01  6.50149E-03  1.0E-07
  4.000E+00  1.21797E-03  1.26999E-15  4.53522E+01  6.67046E-03  1.0E-07
  4.100E+00  1.27961E-03  1.26882E-15  4.53103E+01  6.83961E-03  1.0E-07
  4.200E+00  1.34276E-03  1.26761E-15  4.52673E+01  7.00894E-03  1.0E-07
  4.300E+00  1.40743E-03  1.26638E-15  4.52234E+01  7.17845E-03  1.0E-07
  4.400E+00  1.47362E-03  1.26513E-15  4.51785E+01  7.34814E-03  1.0E-07
  4.500E+00  1.54133E-03  1.26384E-15  4.51325E+01  7.51803E-03  1.0E-07
  4.600E+00  1.61056E-03  1.26253E-15  4.50856E+01  7.68811E-03  1.0E-07
  4.700E+00  1.68131E-03  1.26118E-15  4.50377E+01  7.85839E-03  1.0E-07
  4.800E+00  1.75357E-03  1.25982E-15  4.49889E+01  8.02887E-03  1.0E-07
  4.900E+00  1.82735E-03  1.25842E-15  4.49390E+01  8.19957E-03  1.0E-07
  5.000E+00  1.90265E-03  1.25700E-15  4.48882E+01  8.37048E-03  1.0E-07
  5.100E+00  1.97947E-03  1.25555E-15  4.48364E+01  8.54160E-03  1.0E-07
  5.200E+00  2.05780E-03  1.25407E-15  4.47837E+01  8.71295E-03  1.0E-07
  5.300E+00  2.13765E-03  1.25257E-15  4.47299E+01  8.88452E-03  1.0E-07
  5.400E+00  2.21902E-03  1.25103E-15  4.46753E+01  9.05633E-03  1.0E-07
  5.500E+00  2.30190E-03  1.24948E-15  4.46196E+01  9.22837E-03  1.0E-07
  5.600E+00  2.38630E-03  1.24789E-15  4.45630E+01  9.40065E-03  1.0E-07
  5.700E+00  2.47222E-03  1.24628E-15  4.45055E+01  9.57318E-03  1.0E-07
  5.800E+00  2.55965E-03  1.24464E-15  4.44470E+01  9.74596E-03  1.0E-07
  5.900E+00  2.64859E-03  1.24298E-15  4.43876E+01  9.91899E-03  1.0E-07
  6.000E+00  2.73905E-03  1.24129E-15  4.43272E+01  1.00923E-02  1.0E-07
  6.100E+00  2.83103E-03  1.23957E-15  4.42660E+01  1.02658E-02  1.0E-07
  6.200E+00  2.92452E-03  1.23783E-15  4.42037E+01  1.04397E-02  1.0E-07
  6.300E+00  3.01952E-03  1.23606E-15  4.41406E+01  1.06138E-02  1.0E-07
  6.400E+00  3.11604E-03  1.23427E-15  4.40765E+01  1.07881E-02  1.0E-07
  6.500E+00  3.21407E-03  1.23245E-15  4.40115E+01  1.09628E-02  1.0E-07
  6.600E+00  3.31362E-03  1.23060E-15  4.39456E+01  1.11377E-02  1.0E-07
  6.700E+00  3.41468E-03  1.22873E-15  4.38788E+01  1.13129E-02  1.0E-07
  6.800E+00  3.51725E-03  1.22684E-15  4.38111E+01  1.14885E-02  1.0E-07
  6.900E+00  3.62133E-03  1.22491E-15  4.37425E+01  1.16643E-02  1.0E-07
  7.000E+00  3.72692E-03  1.22297E-15  4.36730E+01  1.18404E-02  1.0E-07
  7.100E+00  3.83403E-03  1.22100E-15  4.36026E+01  1.20169E-02  1.0E-07
  7.200E+00  3.94265E-03  1.21900E-15  4.35313E+01  1.21936E-02  1.0E-07
  7.300E+00  4.05278E-03  1.21698E-15  4.34591E+01  1.23707E-02  1.0E-07
  7.400E+00  4.16442E-03  1.21493E-15  4.33861E+01  1.25481E-02  1.0E-07
  7.500E+00  4.27757E-03  1.21286E-15  4.33121E+01  1.27259E-02  1.0E-07
  7.600E+00  4.39223E-03  1.21077E-15  4.32374E+01  1.29039E-02  1.0E-07
  7.700E+00  4.50840E-03  1.20865E-15  4.31617E+01  1.30823E-02  1.0E-07
  7.800E+00  4.62608E-03  1.20651E-15  4.30852E+01  1.32611E-02  1.0E-07
  7.900E+00  4.74527E-03  1.20434E-15  4.30078E+01  1.34402E-02  1.0E-07
  8.000E+00  4.86597E-03  1.20215E-15  4.29296E+01  1.36196E-02  1.0E-07
  8.100E+00  4.98817E-03  1.19994E-15  4.28505E+01  1.37994E-02  1.0E-07
  8.200E+00  5.11188E-03  1.19770E-15  4.27706E+01  1.39796E-02  1.0E-07
  8.300E+00  5.23711E-03  1.19544E-15  4.26899E+01  1.41601E-02  1.0E-07
  8.400E+00  5.36383E-03  1.19315E-15  4.26083E+01  1.43410E-02  1.0E-07
  8.500E+00  5.49207E-03  1.19085E-15  4.25259E+01  1.45223E-02  1.0E-07
  8.600E+00  5.62181E-03  1.18852E-15  4.24427E+01  1.47040E-02  1.0E-07
  8.700E+00  5.75306E-03  1.18616E-15  4.23587E+01  1.48861E-02  1.0E-07
  8.800E+00  5.88581E-03  1.18379E-15  4.22739E+01  1.50685E-02  1.0E-07
  8.900E+00  6.02007E-03  1.18139E-15  4.21882E+01  1.52514E-02  1.0E-07
  9.000E+00  6.15583E-03  1.17897E-15  4.21018E+01  1.54346E-02  1.0E-07
  9.100E+00  6.29310E-03  1.17653E-15  4.20146E+01  1.56183E-02  1.0E-07
  9.200E+00  6.43187E-03  1.17406E-15  4.19266E+01  1.58023E-02  1.0E-07
  9.300E+00  6.57214E-03  1.17158E-15  4.18378E+01  1.59868E-02  1.0E-07
  9.400E+00  6.71392E-03  1.16907E-15  4.17482E+01  1.61717E-02  1.0E-07
  9.500E+00  6.85720E-03  1.16654E-15  4.16578E+01  1.63571E-02  1.0E-07
  9.600E+00  7.00198E-03  1.16399E-15  4.15667E+01  1.65428E-02  1.0E-07
  9.700E+00  7.14827E-03  1.16141E-15  4.14749E+01  1.67291E-02  1.0E-07
  9.800E+00  7.29605E-03  1.15882E-15  4.13822E+01  1.69157E-02  1.0E-07
  9.900E+00  7.44534E-03  1.15621E-15  4.12889E+01  1.71028E-02  1.0E-07
  1.000E+01  7.59612E-03  1.15357E-15  4.11948E+01  1.72904E-02  1.0E-07
  1.025E+01  7.97965E-03  1.14689E-15  4.09563E+01  1.77613E-02  1.0E-07
  1.050E+01  8.37255E-03  1.14009E-15  4.07133E+01  1.82351E-02  1.0E-07
  1.075E+01  8.77480E-03  1.13316E-15  4.04658E+01  1.87120E-02  1.0E-07
  1.100E+01  9.18641E-03  1.12611E-15  4.02141E+01  1.91920E-02  1.0E-07
  1.125E+01  9.60736E-03  1.11894E-15  3.99581E+01  1.96752E-02  1.0E-07
  1.150E+01  1.00376E-02  1.11166E-15  3.96980E+01  2.01617E-02  1.0E-07
  1.175E+01  1.04773E-02  1.10426E-15  3.94338E+01  2.06515E-02  1.0E-07
  1.200E+01  1.09262E-02  1.09675E-15  3.91658E+01  2.11448E-02  1.0E-07
  1.225E+01  1.13844E-02  1.08914E-15  3.88938E+01  2.16416E-02  1.0E-07
  1.250E+01  1.18520E-02  1.08142E-15  3.86182E+01  2.21421E-02  1.0E-07
  1.275E+01  1.23288E-02  1.07360E-15  3.83389E+01  2.26463E-02  1.0E-07
  1.300E+01  1.28150E-02  1.06568E-15  3.80560E+01  2.31543E-02  1.0E-07
  1.325E+01  1.33104E-02  1.05766E-15  3.77698E+01  2.36662E-02  1.0E-07
  1.350E+01  1.38150E-02  1.04955E-15  3.74802E+01  2.41821E-02  1.0E-07
  1.375E+01  1.43290E-02  1.04135E-15  3.71874E+01  2.47021E-02  1.0E-07
  1.400E+01  1.48521E-02  1.03307E-15  3.68915E+01  2.52262E-02  1.0E-07
  1.425E+01  1.53845E-02  1.02470E-15  3.65925E+01  2.57547E-02  1.0E-07
  1.450E+01  1.59262E-02  1.01624E-15  3.62907E+01  2.62875E-02  1.0E-07
  1.475E+01  1.64770E-02  1.00771E-15  3.59861E+01  2.68247E-02  1.0E-07
