 #
 # Subroutine ELSEPA. Elastic scattering of electrons and positrons
 #                    by neutral atoms and positive ions
 #
 # Projectile: electron
 # Kinetic energy = 1.00000E+01 eV = 3.67493E-01 a.u.
 #
 #  ***  WARNING: Energy is too low.
 #                The reliability of the results is questionable.
 #
 # Element: Hg,  Z =  80,  atomic weight = 2.00590E+02 g/mol
 #
 # Nuclear model: Fermi distribution
 #                Average radius = 6.26355E-13 cm
 #                Skin thickness = 5.46000E-14 cm
 #
 # Number of electrons = 80
 #
 # Electron density: analytical TFD model
 #                   A1 =  1.19007D-01 ,   ALPHA1 = 2.60190D+01
 #                   A2 =  5.60270D-01 ,   ALPHA2 = 5.45128D+00
 #                   A3 =  3.20724D-01 ,   ALPHA3 = 1.55122D+00
 #                   Volume integral = 8.00000E+01
 #
 # Furness-McCarthy exchange potential
 #
 # Total elastic cross section = 1.97483E-15 cm**2 = 7.05225E+01 a0**2
 # 1st transport cross section = 8.09277E-16 cm**2 = 2.88998E+01 a0**2
 # 2nd transport cross section = 1.06392E-15 cm**2 = 3.79932E+01 a0**2
 #
 #
 # Differential cross section:                       MU=(1-COS(THETA))/2
 #
 #  THETA        MU          DCS          DCS        Sherman      error
 #  (deg)                 (cm**2/sr)   (a0**2/sr)    function
 #----------------------------------------------------------------------
  0.000E+00  0.00000E+00  1.22939E-15  4.39023E+01  0.00000E+00  1.0E-07
  1.000E-04  7.61557E-13  1.22939E-15  4.39023E+01  1.72066E-07  1.0E-07
  1.250E-04  1.18994E-12  1.22939E-15  4.39023E+01  2.15083E-07  1.0E-07
  1.500E-04  1.71346E-12  1.22939E-15  4.39023E+01  2.58099E-07  1.0E-07
  1.750E-04  2.33225E-12  1.22939E-15  4.39023E+01  3.01116E-07  1.0E-07
  2.000E-04  3.04617E-12  1.22939E-15  4.39023E+01  3.44132E-07  1.0E-07
  2.250E-04  3.85530E-12  1.22939E-15  4.39023E+01  3.87149E-07  1.0E-07
  2.500E-04  4.75964E-12  1.22939E-15  4.39023E+01  4.30166E-07  1.0E-07
  2.750E-04  5.75917E-12  1.22939E-15  4.39023E+01  4.73182E-07  1.0E-07
  3.000E-04  6.85391E-12  1.22939E-15  4.39023E+01  5.16199E-07  1.0E-07
  3.250E-04  8.04379E-12  1.22939E-15  4.39023E+01  5.59215E-07  1.0E-07
  3.500E-04  9.32893E-12  1.22939E-15  4.39023E+01  6.02232E-07  1.0E-07
  3.750E-04  1.07092E-11  1.22939E-15  4.39023E+01  6.45248E-07  1.0E-07
  4.000E-04  1.21847E-11  1.22939E-15  4.39023E+01  6.88265E-07  1.0E-07
  4.250E-04  1.37554E-11  1.22939E-15  4.39023E+01  7.31282E-07  1.0E-07
  4.500E-04  1.54213E-11  1.22939E-15  4.39023E+01  7.74298E-07  1.0E-07
  4.750E-04  1.71823E-11  1.22939E-15  4.39023E+01  8.17315E-07  1.0E-07
  5.000E-04  1.90386E-11  1.22939E-15  4.39023E+01  8.60331E-07  1.0E-07
  5.250E-04  2.09900E-11  1.22939E-15  4.39023E+01  9.03348E-07  1.0E-07
  5.500E-04  2.30367E-11  1.22939E-15  4.39023E+01  9.46364E-07  1.0E-07
  5.750E-04  2.51785E-11  1.22939E-15  4.39023E+01  9.89381E-07  1.0E-07
  6.000E-04  2.74156E-11  1.22939E-15  4.39023E+01  1.03240E-06  1.0E-07
  6.250E-04  2.97478E-11  1.22939E-15  4.39023E+01  1.07541E-06  1.0E-07
  6.500E-04  3.21752E-11  1.22939E-15  4.39023E+01  1.11843E-06  1.0E-07
  6.750E-04  3.46979E-11  1.22939E-15  4.39023E+01  1.16145E-06  1.0E-07
  7.000E-04  3.73157E-11  1.22939E-15  4.39023E+01  1.20446E-06  1.0E-07
  7.250E-04  4.00286E-11  1.22939E-15  4.39023E+01  1.24748E-06  1.0E-07
  7.500E-04  4.28368E-11  1.22939E-15  4.39023E+01  1.29050E-06  1.0E-07
  7.750E-04  4.57402E-11  1.22939E-15  4.39023E+01  1.33351E-06  1.0E-07
  8.000E-04  4.87388E-11  1.22939E-15  4.39023E+01  1.37653E-06  1.0E-07
  8.250E-04  5.18325E-11  1.22939E-15  4.39023E+01  1.41955E-06  1.0E-07
  8.500E-04  5.50215E-11  1.22939E-15  4.39023E+01  1.46256E-06  1.0E-07
  8.750E-04  5.83057E-11  1.22939E-15  4.39023E+01  1.50558E-06  1.0E-07
  9.000E-04  6.16850E-11  1.22939E-15  4.39023E+01  1.54860E-06  1.0E-07
  9.250E-04  6.51595E-11  1.22939E-15  4.39023E+01  1.59161E-06  1.0E-07
  9.500E-04  6.87293E-11  1.22939E-15  4.39023E+01  1.63463E-06  1.0E-07
  9.750E-04  7.23943E-11  1.22939E-15  4.39023E+01  1.67765E-06  1.0E-07
  1.000E-03  7.61544E-11  1.22939E-15  4.39023E+01  1.72066E-06  1.0E-07
  1.250E-03  1.18991E-10  1.22939E-15  4.39023E+01  2.15083E-06  1.0E-07
  1.500E-03  1.71347E-10  1.22939E-15  4.39023E+01  2.58099E-06  1.0E-07
  1.750E-03  2.33223E-10  1.22939E-15  4.39023E+01  3.01116E-06  1.0E-07
  2.000E-03  3.04617E-10  1.22939E-15  4.39023E+01  3.44132E-06  1.0E-07
  2.250E-03  3.85531E-10  1.22939E-15  4.39023E+01  3.87149E-06  1.0E-07
  2.500E-03  4.75965E-10  1.22939E-15  4.39023E+01  4.30166E-06  1.0E-07
  2.750E-03  5.75917E-10  1.22939E-15  4.39023E+01  4.73182E-06  1.0E-07
  3.000E-03  6.85389E-10  1.22939E-15  4.39023E+01  5.16199E-06  1.0E-07
  3.250E-03  8.04380E-10  1.22939E-15  4.39023E+01  5.59215E-06  1.0E-07
  3.500E-03  9.32891E-10  1.22939E-15  4.39023E+01  6.02232E-06  1.0E-07
  3.750E-03  1.07092E-09  1.22939E-15  4.39023E+01  6.45248E-06  1.0E-07
  4.000E-03  1.21847E-09  1.22939E-15  4.39023E+01  6.88265E-06  1.0E-07
  4.250E-03  1.37554E-09  1.22939E-15  4.39023E+01  7.31282E-06  1.0E-07
  4.500E-03  1.54213E-09  1.22939E-15  4.39023E+01  7.74298E-06  1.0E-07
  4.750E-03  1.71823E-09  1.22939E-15  4.39023E+01  8.17315E-06  1.0E-07
  5.000E-03  1.90386E-09  1.22939E-15  4.39023E+01  8.60331E-06  1.0E-07
  5.250E-03  2.09900E-09  1.22939E-15  4.39023E+01  9.03348E-06  1.0E-07
  5.500E-03  2.30367E-09  1.22939E-15  4.39023E+01  9.46364E-06  1.0E-07
  5.750E-03  2.51785E-09  1.22939E-15  4.39023E+01  9.89381E-06  1.0E-07
  6.000E-03  2.74156E-09  1.22939E-15  4.39023E+01  1.03240E-05  1.0E-07
  6.250E-03  2.97478E-09  1.22939E-15  4.39023E+01  1.07541E-05  1.0E-07
  6.500E-03  3.21752E-09  1.22939E-15  4.39023E+01  1.11843E-05  1.0E-07
  6.750E-03  3.46978E-09  1.22939E-15  4.39023E+01  1.16145E-05  1.0E-07
  7.000E-03  3.73156E-09  1.22939E-15  4.39023E+01  1.20446E-05  1.0E-07
  7.250E-03  4.00286E-09  1.22939E-15  4.39023E+01  1.24748E-05  1.0E-07
  7.500E-03  4.28368E-09  1.22939E-15  4.39023E+01  1.29050E-05  1.0E-07
  7.750E-03  4.57402E-09  1.22939E-15  4.39023E+01  1.33351E-05  1.0E-07
  8.000E-03  4.87388E-09  1.22939E-15  4.39023E+01  1.37653E-05  1.0E-07
  8.250E-03  5.18326E-09  1.22939E-15  4.39023E+01  1.41955E-05  1.0E-07
  8.500E-03  5.50215E-09  1.22939E-15  4.39023E+01  1.46256E-05  1.0E-07
  8.750E-03  5.83057E-09  1.22939E-15  4.39023E+01  1.50558E-05  1.0E-07
  9.000E-03  6.16850E-09  1.22939E-15  4.39023E+01  1.54860E-05  1.0E-07
  9.250E-03  6.51596E-09  1.22939E-15  4.39023E+01  1.59161E-05  1.0E-07
  9.500E-03  6.87293E-09  1.22939E-15  4.39023E+01  1.63463E-05  1.0E-07
  9.750E-03  7.23942E-09  1.22939E-15  4.39023E+01  1.67765E-05  1.0E-07
  1.000E-02  7.61544E-09  1.22939E-15  4.39023E+01  1.72066E-05  1.0E-07
  1.250E-02  1.18991E-08  1.22939E-15  4.39023E+01  2.15083E-05  1.0E-07
  1.500E-02  1.71347E-08  1.22939E-15  4.39023E+01  2.58099E-05  1.0E-07
  1.750E-02  2.33223E-08  1.22939E-15  4.39023E+01  3.01116E-05  1.0E-07
  2.000E-02  3.04617E-08  1.22939E-15  4.39023E+01  3.44133E-05  1.0E-07
  2.250E-02  3.85531E-08  1.22939E-15  4.39023E+01  3.87149E-05  1.0E-07
  2.500E-02  4.75965E-08  1.22939E-15  4.39023E+01  4.30166E-05  1.0E-07
  2.750E-02  5.75917E-08  1.22939E-15  4.39023E+01  4.73182E-05  1.0E-07
  3.000E-02  6.85389E-08  1.22939E-15  4.39023E+01  5.16199E-05  1.0E-07
  3.250E-02  8.04380E-08  1.22939E-15  4.39023E+01  5.59215E-05  1.0E-07
  3.500E-02  9.32891E-08  1.22939E-15  4.39023E+01  6.02232E-05  1.0E-07
  3.750E-02  1.07092E-07  1.22939E-15  4.39023E+01  6.45249E-05  1.0E-07
  4.000E-02  1.21847E-07  1.22939E-15  4.39023E+01  6.88265E-05  1.0E-07
  4.250E-02  1.37554E-07  1.22939E-15  4.39023E+01  7.31282E-05  1.0E-07
  4.500E-02  1.54213E-07  1.22939E-15  4.39023E+01  7.74299E-05  1.0E-07
  4.750E-02  1.71823E-07  1.22939E-15  4.39023E+01  8.17315E-05  1.0E-07
  5.000E-02  1.90386E-07  1.22939E-15  4.39023E+01  8.60332E-05  1.0E-07
  5.250E-02  2.09900E-07  1.22939E-15  4.39023E+01  9.03349E-05  1.0E-07
  5.500E-02  2.30367E-07  1.22939E-15  4.39022E+01  9.46365E-05  1.0E-07
  5.750E-02  2.51785E-07  1.22939E-15  4.39022E+01  9.89382E-05  1.0E-07
  6.000E-02  2.74156E-07  1.22939E-15  4.39022E+01  1.03240E-04  1.0E-07
  6.250E-02  2.97478E-07  1.22939E-15  4.39022E+01  1.07542E-04  1.0E-07
  6.500E-02  3.21752E-07  1.22939E-15  4.39022E+01  1.11843E-04  1.0E-07
  6.750E-02  3.46978E-07  1.22939E-15  4.39022E+01  1.16145E-04  1.0E-07
  7.000E-02  3.73156E-07  1.22939E-15  4.39022E+01  1.20447E-04  1.0E-07
  7.250E-02  4.00286E-07  1.22939E-15  4.39022E+01  1.24748E-04  1.0E-07
  7.500E-02  4.28368E-07  1.22939E-15  4.39022E+01  1.29050E-04  1.0E-07
  7.750E-02  4.57402E-07  1.22939E-15  4.39021E+01  1.33352E-04  1.0E-07
  8.000E-02  4.87388E-07  1.22938E-15  4.39021E+01  1.37653E-04  1.0E-07
  8.250E-02  5.18325E-07  1.22938E-15  4.39021E+01  1.41955E-04  1.0E-07
  8.500E-02  5.50215E-07  1.22938E-15  4.39021E+01  1.46257E-04  1.0E-07
  8.750E-02  5.83057E-07  1.22938E-15  4.39021E+01  1.50558E-04  1.0E-07
  9.000E-02  6.16850E-07  1.22938E-15  4.39021E+01  1.54860E-04  1.0E-07
  9.250E-02  6.51596E-07  1.22938E-15  4.39021E+01  1.59162E-04  1.0E-07
  9.500E-02  6.87293E-07  1.22938E-15  4.39021E+01  1.63463E-04  1.0E-07
  9.750E-02  7.23942E-07  1.22938E-15  4.39020E+01  1.67765E-04  1.0E-07
  1.000E-01  7.61543E-07  1.22938E-15  4.39020E+01  1.72067E-04  1.0E-07
  1.250E-01  1.18991E-06  1.22938E-15  4.39018E+01  2.15084E-04  1.0E-07
  1.500E-01  1.71347E-06  1.22937E-15  4.39016E+01  2.58101E-04  1.0E-07
  1.750E-01  2.33223E-06  1.22936E-15  4.39014E+01  3.01119E-04  1.0E-07
  2.000E-01  3.04617E-06  1.22936E-15  4.39011E+01  3.44137E-04  1.0E-07
  2.250E-01  3.85531E-06  1.22935E-15  4.39007E+01  3.87155E-04  1.0E-07
  2.500E-01  4.75964E-06  1.22934E-15  4.39004E+01  4.30174E-04  1.0E-07
  2.750E-01  5.75916E-06  1.22932E-15  4.39000E+01  4.73193E-04  1.0E-07
  3.000E-01  6.85388E-06  1.22931E-15  4.38995E+01  5.16213E-04  1.0E-07
  3.250E-01  8.04378E-06  1.22930E-15  4.38990E+01  5.59233E-04  1.0E-07
  3.500E-01  9.32888E-06  1.22928E-15  4.38985E+01  6.02254E-04  1.0E-07
  3.750E-01  1.07092E-05  1.22927E-15  4.38979E+01  6.45276E-04  1.0E-07
  4.000E-01  1.21846E-05  1.22925E-15  4.38973E+01  6.88299E-04  1.0E-07
  4.250E-01  1.37553E-05  1.22923E-15  4.38967E+01  7.31322E-04  1.0E-07
  4.500E-01  1.54212E-05  1.22921E-15  4.38960E+01  7.74346E-04  1.0E-07
  4.750E-01  1.71822E-05  1.22919E-15  4.38952E+01  8.17371E-04  1.0E-07
  5.000E-01  1.90385E-05  1.22917E-15  4.38945E+01  8.60397E-04  1.0E-07
  5.250E-01  2.09899E-05  1.22915E-15  4.38937E+01  9.03424E-04  1.0E-07
  5.500E-01  2.30365E-05  1.22912E-15  4.38928E+01  9.46452E-04  1.0E-07
  5.750E-01  2.51783E-05  1.22910E-15  4.38919E+01  9.89481E-04  1.0E-07
  6.000E-01  2.74153E-05  1.22907E-15  4.38910E+01  1.03251E-03  1.0E-07
  6.250E-01  2.97475E-05  1.22905E-15  4.38901E+01  1.07554E-03  1.0E-07
  6.500E-01  3.21749E-05  1.22902E-15  4.38890E+01  1.11857E-03  1.0E-07
  6.750E-01  3.46974E-05  1.22899E-15  4.38880E+01  1.16161E-03  1.0E-07
  7.000E-01  3.73152E-05  1.22896E-15  4.38869E+01  1.20464E-03  1.0E-07
  7.250E-01  4.00281E-05  1.22893E-15  4.38858E+01  1.24768E-03  1.0E-07
  7.500E-01  4.28362E-05  1.22890E-15  4.38846E+01  1.29072E-03  1.0E-07
  7.750E-01  4.57395E-05  1.22886E-15  4.38834E+01  1.33376E-03  1.0E-07
  8.000E-01  4.87380E-05  1.22883E-15  4.38822E+01  1.37680E-03  1.0E-07
  8.250E-01  5.18317E-05  1.22879E-15  4.38809E+01  1.41984E-03  1.0E-07
  8.500E-01  5.50205E-05  1.22875E-15  4.38796E+01  1.46289E-03  1.0E-07
  8.750E-01  5.83045E-05  1.22872E-15  4.38783E+01  1.50593E-03  1.0E-07
  9.000E-01  6.16838E-05  1.22868E-15  4.38769E+01  1.54898E-03  1.0E-07
  9.250E-01  6.51582E-05  1.22864E-15  4.38754E+01  1.59203E-03  1.0E-07
  9.500E-01  6.87277E-05  1.22860E-15  4.38740E+01  1.63508E-03  1.0E-07
  9.750E-01  7.23925E-05  1.22855E-15  4.38724E+01  1.67813E-03  1.0E-07
  1.000E+00  7.61524E-05  1.22851E-15  4.38709E+01  1.72119E-03  1.0E-07
  1.100E+00  9.21439E-05  1.22833E-15  4.38643E+01  1.89343E-03  1.0E-07
  1.200E+00  1.09658E-04  1.22812E-15  4.38571E+01  2.06570E-03  1.0E-07
  1.300E+00  1.28695E-04  1.22790E-15  4.38492E+01  2.23801E-03  1.0E-07
  1.400E+00  1.49255E-04  1.22767E-15  4.38407E+01  2.41037E-03  1.0E-07
  1.500E+00  1.71338E-04  1.22741E-15  4.38316E+01  2.58276E-03  1.0E-07
  1.600E+00  1.94942E-04  1.22714E-15  4.38219E+01  2.75521E-03  1.0E-07
  1.700E+00  2.20070E-04  1.22685E-15  4.38115E+01  2.92770E-03  1.0E-07
  1.800E+00  2.46720E-04  1.22654E-15  4.38006E+01  3.10025E-03  1.0E-07
  1.900E+00  2.74892E-04  1.22622E-15  4.37889E+01  3.27286E-03  1.0E-07
  2.000E+00  3.04586E-04  1.22587E-15  4.37767E+01  3.44552E-03  1.0E-07
  2.100E+00  3.35803E-04  1.22551E-15  4.37639E+01  3.61825E-03  1.0E-07
  2.200E+00  3.68542E-04  1.22514E-15  4.37504E+01  3.79105E-03  1.0E-07
  2.300E+00  4.02802E-04  1.22474E-15  4.37363E+01  3.96391E-03  1.0E-07
  2.400E+00  4.38585E-04  1.22433E-15  4.37216E+01  4.13685E-03  1.0E-07
  2.500E+00  4.75889E-04  1.22390E-15  4.37062E+01  4.30986E-03  1.0E-07
  2.600E+00  5.14715E-04  1.22345E-15  4.36903E+01  4.48295E-03  1.0E-07
  2.700E+00  5.55063E-04  1.22299E-15  4.36737E+01  4.65612E-03  1.0E-07
  2.800E+00  5.96931E-04  1.22251E-15  4.36565E+01  4.82938E-03  1.0E-07
  2.900E+00  6.40321E-04  1.22201E-15  4.36387E+01  5.00272E-03  1.0E-07
  3.000E+00  6.85233E-04  1.22149E-15  4.36202E+01  5.17616E-03  1.0E-07
  3.100E+00  7.31665E-04  1.22096E-15  4.36012E+01  5.34970E-03  1.0E-07
  3.200E+00  7.79618E-04  1.22041E-15  4.35815E+01  5.52333E-03  1.0E-07
  3.300E+00  8.29092E-04  1.21984E-15  4.35613E+01  5.69706E-03  1.0E-07
  3.400E+00  8.80086E-04  1.21925E-15  4.35404E+01  5.87089E-03  1.0E-07
  3.500E+00  9.32601E-04  1.21865E-15  4.35189E+01  6.04484E-03  1.0E-07
  3.600E+00  9.86636E-04  1.21803E-15  4.34968E+01  6.21889E-03  1.0E-07
  3.700E+00  1.04219E-03  1.21740E-15  4.34740E+01  6.39306E-03  1.0E-07
  3.800E+00  1.09927E-03  1.21674E-15  4.34507E+01  6.56734E-03  1.0E-07
  3.900E+00  1.15786E-03  1.21607E-15  4.34268E+01  6.74175E-03  1.0E-07
  4.000E+00  1.21797E-03  1.21539E-15  4.34022E+01  6.91627E-03  1.0E-07
  4.100E+00  1.27961E-03  1.21468E-15  4.33771E+01  7.09093E-03  1.0E-07
  4.200E+00  1.34276E-03  1.21396E-15  4.33513E+01  7.26571E-03  1.0E-07
  4.300E+00  1.40743E-03  1.21322E-15  4.33250E+01  7.44063E-03  1.0E-07
  4.400E+00  1.47362E-03  1.21247E-15  4.32980E+01  7.61568E-03  1.0E-07
  4.500E+00  1.54133E-03  1.21170E-15  4.32705E+01  7.79087E-03  1.0E-07
  4.600E+00  1.61056E-03  1.21091E-15  4.32423E+01  7.96621E-03  1.0E-07
  4.700E+00  1.68131E-03  1.21010E-15  4.32135E+01  8.14169E-03  1.0E-07
  4.800E+00  1.75357E-03  1.20928E-15  4.31842E+01  8.31732E-03  1.0E-07
  4.900E+00  1.82735E-03  1.20844E-15  4.31542E+01  8.49310E-03  1.0E-07
  5.000E+00  1.90265E-03  1.20759E-15  4.31237E+01  8.66904E-03  1.0E-07
  5.100E+00  1.97947E-03  1.20671E-15  4.30926E+01  8.84513E-03  1.0E-07
  5.200E+00  2.05780E-03  1.20583E-15  4.30608E+01  9.02139E-03  1.0E-07
  5.300E+00  2.13765E-03  1.20492E-15  4.30285E+01  9.19781E-03  1.0E-07
  5.400E+00  2.21902E-03  1.20400E-15  4.29956E+01  9.37440E-03  1.0E-07
  5.500E+00  2.30190E-03  1.20306E-15  4.29621E+01  9.55117E-03  1.0E-07
  5.600E+00  2.38630E-03  1.20211E-15  4.29281E+01  9.72810E-03  1.0E-07
  5.700E+00  2.47222E-03  1.20114E-15  4.28934E+01  9.90522E-03  1.0E-07
  5.800E+00  2.55965E-03  1.20015E-15  4.28582E+01  1.00825E-02  1.0E-07
  5.900E+00  2.64859E-03  1.19915E-15  4.28224E+01  1.02600E-02  1.0E-07
  6.000E+00  2.73905E-03  1.19813E-15  4.27860E+01  1.04377E-02  1.0E-07
  6.100E+00  2.83103E-03  1.19709E-15  4.27490E+01  1.06155E-02  1.0E-07
  6.200E+00  2.92452E-03  1.19604E-15  4.27115E+01  1.07936E-02  1.0E-07
  6.300E+00  3.01952E-03  1.19498E-15  4.26733E+01  1.09718E-02  1.0E-07
  6.400E+00  3.11604E-03  1.19389E-15  4.26347E+01  1.11503E-02  1.0E-07
  6.500E+00  3.21407E-03  1.19279E-15  4.25954E+01  1.13289E-02  1.0E-07
  6.600E+00  3.31362E-03  1.19168E-15  4.25556E+01  1.15078E-02  1.0E-07
  6.700E+00  3.41468E-03  1.19055E-15  4.25152E+01  1.16869E-02  1.0E-07
  6.800E+00  3.51725E-03  1.18940E-15  4.24742E+01  1.18662E-02  1.0E-07
  6.900E+00  3.62133E-03  1.18824E-15  4.24327E+01  1.20457E-02  1.0E-07
  7.000E+00  3.72692E-03  1.18706E-15  4.23906E+01  1.22254E-02  1.0E-07
  7.100E+00  3.83403E-03  1.18586E-15  4.23480E+01  1.24053E-02  1.0E-07
  7.200E+00  3.94265E-03  1.18466E-15  4.23048E+01  1.25855E-02  1.0E-07
  7.300E+00  4.05278E-03  1.18343E-15  4.22611E+01  1.27659E-02  1.0E-07
  7.400E+00  4.16442E-03  1.18219E-15  4.22168E+01  1.29466E-02  1.0E-07
  7.500E+00  4.27757E-03  1.18093E-15  4.21719E+01  1.31274E-02  1.0E-07
  7.600E+00  4.39223E-03  1.17966E-15  4.21265E+01  1.33086E-02  1.0E-07
  7.700E+00  4.50840E-03  1.17838E-15  4.20806E+01  1.34899E-02  1.0E-07
  7.800E+00  4.62608E-03  1.17707E-15  4.20341E+01  1.36715E-02  1.0E-07
  7.900E+00  4.74527E-03  1.17576E-15  4.19871E+01  1.38534E-02  1.0E-07
  8.000E+00  4.86597E-03  1.17443E-15  4.19395E+01  1.40355E-02  1.0E-07
  8.100E+00  4.98817E-03  1.17308E-15  4.18914E+01  1.42179E-02  1.0E-07
  8.200E+00  5.11188E-03  1.17172E-15  4.18428E+01  1.44005E-02  1.0E-07
  8.300E+00  5.23711E-03  1.17034E-15  4.17936E+01  1.45834E-02  1.0E-07
  8.400E+00  5.36383E-03  1.16895E-15  4.17439E+01  1.47665E-02  1.0E-07
  8.500E+00  5.49207E-03  1.16754E-15  4.16937E+01  1.49500E-02  1.0E-07
  8.600E+00  5.62181E-03  1.16612E-15  4.16429E+01  1.51337E-02  1.0E-07
  8.700E+00  5.75306E-03  1.16469E-15  4.15917E+01  1.53176E-02  1.0E-07
  8.800E+00  5.88581E-03  1.16323E-15  4.15399E+01  1.55019E-02  1.0E-07
  8.900E+00  6.02007E-03  1.16177E-15  4.14875E+01  1.56864E-02  1.0E-07
  9.000E+00  6.15583E-03  1.16029E-15  4.14347E+01  1.58713E-02  1.0E-07
  9.100E+00  6.29310E-03  1.15880E-15  4.13814E+01  1.60564E-02  1.0E-07
  9.200E+00  6.43187E-03  1.15729E-15  4.13275E+01  1.62418E-02  1.0E-07
  9.300E+00  6.57214E-03  1.15577E-15  4.12731E+01  1.64275E-02  1.0E-07
  9.400E+00  6.71392E-03  1.15423E-15  4.12183E+01  1.66135E-02  1.0E-07
  9.500E+00  6.85720E-03  1.15268E-15  4.11629E+01  1.67998E-02  1.0E-07
  9.600E+00  7.00198E-03  1.15111E-15  4.11070E+01  1.69864E-02  1.0E-07
  9.700E+00  7.14827E-03  1.14953E-15  4.10506E+01  1.71734E-02  1.0E-07
  9.800E+00  7.29605E-03  1.14794E-15  4.09937E+01  1.73606E-02  1.0E-07
  9.900E+00  7.44534E-03  1.14634E-15  4.09364E+01  1.75482E-02  1.0E-07
  1.000E+01  7.59612E-03  1.14471E-15  4.08785E+01  1.77361E-02  1.0E-07
  1.025E+01  7.97965E-03  1.14060E-15  4.07317E+01  1.82072E-02  1.0E-07
  1.050E+01  8.37255E-03  1.13641E-15  4.05819E+01  1.86804E-02  1.0E-07
  1.075E+01  8.77480E-03  1.13213E-15  4.04292E+01  1.91558E-02  1.0E-07
  1.100E+01  9.18641E-03  1.12777E-15  4.02734E+01  1.96333E-02  1.0E-07
  1.125E+01  9.60736E-03  1.12333E-15  4.01149E+01  2.01131E-02  1.0E-07
  1.150E+01  1.00376E-02  1.11881E-15  3.99534E+01  2.05952E-02  1.0E-07
  1.175E+01  1.04773E-02  1.11421E-15  3.97892E+01  2.10796E-02  1.0E-07
  1.200E+01  1.09262E-02  1.10953E-15  3.96222E+01  2.15665E-02  1.0E-07
  1.225E+01  1.13844E-02  1.10478E-15  3.94525E+01  2.20558E-02  1.0E-07
  1.250E+01  1.18520E-02  1.09996E-15  3.92802E+01  2.25476E-02  1.0E-07
  1.275E+01  1.23288E-02  1.09506E-15  3.91052E+01  2.30420E-02  1.0E-07
  1.300E+01  1.28150E-02  1.09009E-15  3.89277E+01  2.35390E-02  1.0E-07
  1.325E+01  1.33104E-02  1.08504E-15  3.87476E+01  2.40387E-02  1.0E-07
  1.350E+01  1.38150E-02  1.07993E-15  3.85651E+01  2.45412E-02  1.0E-07
  1.375E+01  1.43290E-02  1.07475E-15  3.83802E+01  2.50464E-02  1.0E-07
  1.400E+01  1.48521E-02  1.06951E-15  3.81928E+01  2.55546E-02  1.0E-07
  1.425E+01  1.53845E-02  1.06420E-15  3.80032E+01  2.60656E-02  1.0E-07
  1.450E+01  1.59262E-02  1.05882E-15  3.78113E+01  2.65796E-02  1.0E-07
  1.475E+01  1.64770E-02  1.05339E-15  3.76172E+01  2.70966E-02  1.0E-07
