 #
 # Subroutine ELSEPA. Elastic scattering of electrons and positrons
 #                    by neutral atoms and positive ions
 #
 # Projectile: electron
 # Kinetic energy = 7.00000E+03 eV = 2.57245E+02 a.u.
 #
 # Element: Hg,  Z =  80,  atomic weight = 2.00590E+02 g/mol
 #
 # Nuclear model: Fermi distribution
 #                Average radius = 6.26355E-13 cm
 #                Skin thickness = 5.46000E-14 cm
 #
 # Number of electrons = 80
 #
 # Electron density: analytical TFD model
 #                   A1 =  1.19007D-01 ,   ALPHA1 = 2.60190D+01
 #                   A2 =  5.60270D-01 ,   ALPHA2 = 5.45128D+00
 #                   A3 =  3.20724D-01 ,   ALPHA3 = 1.55122D+00
 #                   Volume integral = 8.00000E+01
 #
 # Furness-McCarthy exchange potential
 #
 # Total elastic cross section = 1.21150E-16 cm**2 = 4.32634E+00 a0**2
 # 1st transport cross section = 7.78210E-18 cm**2 = 2.77904E-01 a0**2
 # 2nd transport cross section = 1.11212E-17 cm**2 = 3.97146E-01 a0**2
 #
 #
 # Differential cross section:                       MU=(1-COS(THETA))/2
 #
 #  THETA        MU          DCS          DCS        Sherman      error
 #  (deg)                 (cm**2/sr)   (a0**2/sr)    function
 #----------------------------------------------------------------------
  0.000E+00  0.00000E+00  8.56657E-15  3.05918E+02  0.00000E+00  1.0E-07
  1.000E-04  7.61557E-13  8.56657E-15  3.05918E+02 -9.42525E-10  1.0E-07
  1.250E-04  1.18994E-12  8.56657E-15  3.05918E+02 -1.17816E-09  1.0E-07
  1.500E-04  1.71346E-12  8.56657E-15  3.05918E+02 -1.41379E-09  1.0E-07
  1.750E-04  2.33225E-12  8.56657E-15  3.05918E+02 -1.64942E-09  1.0E-07
  2.000E-04  3.04617E-12  8.56657E-15  3.05918E+02 -1.88505E-09  1.0E-07
  2.250E-04  3.85530E-12  8.56657E-15  3.05918E+02 -2.12068E-09  1.0E-07
  2.500E-04  4.75964E-12  8.56657E-15  3.05918E+02 -2.35631E-09  1.0E-07
  2.750E-04  5.75917E-12  8.56657E-15  3.05918E+02 -2.59194E-09  1.0E-07
  3.000E-04  6.85391E-12  8.56657E-15  3.05918E+02 -2.82757E-09  1.0E-07
  3.250E-04  8.04379E-12  8.56657E-15  3.05918E+02 -3.06321E-09  1.0E-07
  3.500E-04  9.32893E-12  8.56657E-15  3.05918E+02 -3.29884E-09  1.0E-07
  3.750E-04  1.07092E-11  8.56657E-15  3.05918E+02 -3.53447E-09  1.0E-07
  4.000E-04  1.21847E-11  8.56657E-15  3.05918E+02 -3.77010E-09  1.0E-07
  4.250E-04  1.37554E-11  8.56657E-15  3.05918E+02 -4.00573E-09  1.0E-07
  4.500E-04  1.54213E-11  8.56657E-15  3.05918E+02 -4.24136E-09  1.0E-07
  4.750E-04  1.71823E-11  8.56657E-15  3.05918E+02 -4.47699E-09  1.0E-07
  5.000E-04  1.90386E-11  8.56657E-15  3.05918E+02 -4.71262E-09  1.0E-07
  5.250E-04  2.09900E-11  8.56657E-15  3.05918E+02 -4.94826E-09  1.0E-07
  5.500E-04  2.30367E-11  8.56657E-15  3.05918E+02 -5.18389E-09  1.0E-07
  5.750E-04  2.51785E-11  8.56657E-15  3.05918E+02 -5.41952E-09  1.0E-07
  6.000E-04  2.74156E-11  8.56657E-15  3.05918E+02 -5.65515E-09  1.0E-07
  6.250E-04  2.97478E-11  8.56657E-15  3.05918E+02 -5.89078E-09  1.0E-07
  6.500E-04  3.21752E-11  8.56657E-15  3.05918E+02 -6.12641E-09  1.0E-07
  6.750E-04  3.46979E-11  8.56657E-15  3.05918E+02 -6.36204E-09  1.0E-07
  7.000E-04  3.73157E-11  8.56657E-15  3.05918E+02 -6.59767E-09  1.0E-07
  7.250E-04  4.00286E-11  8.56657E-15  3.05918E+02 -6.83331E-09  1.0E-07
  7.500E-04  4.28368E-11  8.56657E-15  3.05918E+02 -7.06894E-09  1.0E-07
  7.750E-04  4.57402E-11  8.56657E-15  3.05918E+02 -7.30457E-09  1.0E-07
  8.000E-04  4.87388E-11  8.56657E-15  3.05918E+02 -7.54020E-09  1.0E-07
  8.250E-04  5.18325E-11  8.56657E-15  3.05918E+02 -7.77583E-09  1.0E-07
  8.500E-04  5.50215E-11  8.56657E-15  3.05918E+02 -8.01146E-09  1.0E-07
  8.750E-04  5.83057E-11  8.56657E-15  3.05918E+02 -8.24709E-09  1.0E-07
  9.000E-04  6.16850E-11  8.56657E-15  3.05918E+02 -8.48272E-09  1.0E-07
  9.250E-04  6.51595E-11  8.56657E-15  3.05918E+02 -8.71836E-09  1.0E-07
  9.500E-04  6.87293E-11  8.56657E-15  3.05918E+02 -8.95399E-09  1.0E-07
  9.750E-04  7.23943E-11  8.56657E-15  3.05918E+02 -9.18962E-09  1.0E-07
  1.000E-03  7.61544E-11  8.56657E-15  3.05918E+02 -9.42525E-09  1.0E-07
  1.250E-03  1.18991E-10  8.56657E-15  3.05918E+02 -1.17816E-08  1.0E-07
  1.500E-03  1.71347E-10  8.56656E-15  3.05918E+02 -1.41379E-08  1.0E-07
  1.750E-03  2.33223E-10  8.56656E-15  3.05918E+02 -1.64942E-08  1.0E-07
  2.000E-03  3.04617E-10  8.56656E-15  3.05918E+02 -1.88505E-08  1.0E-07
  2.250E-03  3.85531E-10  8.56656E-15  3.05917E+02 -2.12068E-08  1.0E-07
  2.500E-03  4.75965E-10  8.56656E-15  3.05917E+02 -2.35631E-08  1.0E-07
  2.750E-03  5.75917E-10  8.56656E-15  3.05917E+02 -2.59195E-08  1.0E-07
  3.000E-03  6.85389E-10  8.56656E-15  3.05917E+02 -2.82758E-08  1.0E-07
  3.250E-03  8.04380E-10  8.56655E-15  3.05917E+02 -3.06321E-08  1.0E-07
  3.500E-03  9.32891E-10  8.56655E-15  3.05917E+02 -3.29884E-08  1.0E-07
  3.750E-03  1.07092E-09  8.56655E-15  3.05917E+02 -3.53447E-08  1.0E-07
  4.000E-03  1.21847E-09  8.56655E-15  3.05917E+02 -3.77011E-08  1.0E-07
  4.250E-03  1.37554E-09  8.56654E-15  3.05917E+02 -4.00574E-08  1.0E-07
  4.500E-03  1.54213E-09  8.56654E-15  3.05917E+02 -4.24137E-08  1.0E-07
  4.750E-03  1.71823E-09  8.56654E-15  3.05917E+02 -4.47700E-08  1.0E-07
  5.000E-03  1.90386E-09  8.56654E-15  3.05917E+02 -4.71264E-08  1.0E-07
  5.250E-03  2.09900E-09  8.56653E-15  3.05916E+02 -4.94827E-08  1.0E-07
  5.500E-03  2.30367E-09  8.56653E-15  3.05916E+02 -5.18390E-08  1.0E-07
  5.750E-03  2.51785E-09  8.56653E-15  3.05916E+02 -5.41954E-08  1.0E-07
  6.000E-03  2.74156E-09  8.56652E-15  3.05916E+02 -5.65517E-08  1.0E-07
  6.250E-03  2.97478E-09  8.56652E-15  3.05916E+02 -5.89080E-08  1.0E-07
  6.500E-03  3.21752E-09  8.56651E-15  3.05916E+02 -6.12644E-08  1.0E-07
  6.750E-03  3.46978E-09  8.56651E-15  3.05916E+02 -6.36207E-08  1.0E-07
  7.000E-03  3.73156E-09  8.56650E-15  3.05915E+02 -6.59771E-08  1.0E-07
  7.250E-03  4.00286E-09  8.56650E-15  3.05915E+02 -6.83334E-08  1.0E-07
  7.500E-03  4.28368E-09  8.56650E-15  3.05915E+02 -7.06898E-08  1.0E-07
  7.750E-03  4.57402E-09  8.56649E-15  3.05915E+02 -7.30461E-08  1.0E-07
  8.000E-03  4.87388E-09  8.56649E-15  3.05915E+02 -7.54025E-08  1.0E-07
  8.250E-03  5.18326E-09  8.56648E-15  3.05915E+02 -7.77588E-08  1.0E-07
  8.500E-03  5.50215E-09  8.56647E-15  3.05914E+02 -8.01152E-08  1.0E-07
  8.750E-03  5.83057E-09  8.56647E-15  3.05914E+02 -8.24716E-08  1.0E-07
  9.000E-03  6.16850E-09  8.56646E-15  3.05914E+02 -8.48279E-08  1.0E-07
  9.250E-03  6.51596E-09  8.56646E-15  3.05914E+02 -8.71843E-08  1.0E-07
  9.500E-03  6.87293E-09  8.56645E-15  3.05914E+02 -8.95407E-08  1.0E-07
  9.750E-03  7.23942E-09  8.56645E-15  3.05913E+02 -9.18971E-08  1.0E-07
  1.000E-02  7.61544E-09  8.56644E-15  3.05913E+02 -9.42535E-08  1.0E-07
  1.250E-02  1.18991E-08  8.56637E-15  3.05911E+02 -1.17818E-07  1.0E-07
  1.500E-02  1.71347E-08  8.56628E-15  3.05907E+02 -1.41382E-07  1.0E-07
  1.750E-02  2.33223E-08  8.56617E-15  3.05904E+02 -1.64947E-07  1.0E-07
  2.000E-02  3.04617E-08  8.56605E-15  3.05899E+02 -1.88513E-07  1.0E-07
  2.250E-02  3.85531E-08  8.56592E-15  3.05894E+02 -2.12079E-07  1.0E-07
  2.500E-02  4.75965E-08  8.56576E-15  3.05889E+02 -2.35646E-07  1.0E-07
  2.750E-02  5.75917E-08  8.56560E-15  3.05883E+02 -2.59214E-07  1.0E-07
  3.000E-02  6.85389E-08  8.56541E-15  3.05876E+02 -2.82784E-07  1.0E-07
  3.250E-02  8.04380E-08  8.56521E-15  3.05869E+02 -3.06354E-07  1.0E-07
  3.500E-02  9.32891E-08  8.56499E-15  3.05861E+02 -3.29925E-07  1.0E-07
  3.750E-02  1.07092E-07  8.56476E-15  3.05853E+02 -3.53498E-07  1.0E-07
  4.000E-02  1.21847E-07  8.56451E-15  3.05844E+02 -3.77072E-07  1.0E-07
  4.250E-02  1.37554E-07  8.56425E-15  3.05835E+02 -4.00647E-07  1.0E-07
  4.500E-02  1.54213E-07  8.56396E-15  3.05825E+02 -4.24224E-07  1.0E-07
  4.750E-02  1.71823E-07  8.56367E-15  3.05814E+02 -4.47803E-07  1.0E-07
  5.000E-02  1.90386E-07  8.56335E-15  3.05803E+02 -4.71383E-07  1.0E-07
  5.250E-02  2.09900E-07  8.56302E-15  3.05791E+02 -4.94966E-07  1.0E-07
  5.500E-02  2.30367E-07  8.56268E-15  3.05779E+02 -5.18550E-07  1.0E-07
  5.750E-02  2.51785E-07  8.56232E-15  3.05766E+02 -5.42136E-07  1.0E-07
  6.000E-02  2.74156E-07  8.56194E-15  3.05752E+02 -5.65724E-07  1.0E-07
  6.250E-02  2.97478E-07  8.56155E-15  3.05738E+02 -5.89314E-07  1.0E-07
  6.500E-02  3.21752E-07  8.56114E-15  3.05724E+02 -6.12907E-07  1.0E-07
  6.750E-02  3.46978E-07  8.56071E-15  3.05709E+02 -6.36502E-07  1.0E-07
  7.000E-02  3.73156E-07  8.56027E-15  3.05693E+02 -6.60100E-07  1.0E-07
  7.250E-02  4.00286E-07  8.55981E-15  3.05676E+02 -6.83700E-07  1.0E-07
  7.500E-02  4.28368E-07  8.55934E-15  3.05660E+02 -7.07302E-07  1.0E-07
  7.750E-02  4.57402E-07  8.55885E-15  3.05642E+02 -7.30908E-07  1.0E-07
  8.000E-02  4.87388E-07  8.55834E-15  3.05624E+02 -7.54516E-07  1.0E-07
  8.250E-02  5.18325E-07  8.55782E-15  3.05605E+02 -7.78127E-07  1.0E-07
  8.500E-02  5.50215E-07  8.55728E-15  3.05586E+02 -8.01741E-07  1.0E-07
  8.750E-02  5.83057E-07  8.55673E-15  3.05566E+02 -8.25358E-07  1.0E-07
  9.000E-02  6.16850E-07  8.55616E-15  3.05546E+02 -8.48978E-07  1.0E-07
  9.250E-02  6.51596E-07  8.55557E-15  3.05525E+02 -8.72602E-07  1.0E-07
  9.500E-02  6.87293E-07  8.55497E-15  3.05504E+02 -8.96229E-07  1.0E-07
  9.750E-02  7.23942E-07  8.55435E-15  3.05482E+02 -9.19859E-07  1.0E-07
  1.000E-01  7.61543E-07  8.55372E-15  3.05459E+02 -9.43493E-07  1.0E-07
  1.250E-01  1.18991E-06  8.54651E-15  3.05201E+02 -1.18005E-06  1.0E-07
  1.500E-01  1.71347E-06  8.53770E-15  3.04887E+02 -1.41706E-06  1.0E-07
  1.750E-01  2.33223E-06  8.52731E-15  3.04516E+02 -1.65461E-06  1.0E-07
  2.000E-01  3.04617E-06  8.51534E-15  3.04088E+02 -1.89280E-06  1.0E-07
  2.250E-01  3.85531E-06  8.50181E-15  3.03605E+02 -2.13172E-06  1.0E-07
  2.500E-01  4.75964E-06  8.48672E-15  3.03066E+02 -2.37146E-06  1.0E-07
  2.750E-01  5.75916E-06  8.47009E-15  3.02472E+02 -2.61211E-06  1.0E-07
  3.000E-01  6.85388E-06  8.45193E-15  3.01824E+02 -2.85376E-06  1.0E-07
  3.250E-01  8.04378E-06  8.43225E-15  3.01121E+02 -3.09650E-06  1.0E-07
  3.500E-01  9.32888E-06  8.41107E-15  3.00365E+02 -3.34044E-06  1.0E-07
  3.750E-01  1.07092E-05  8.38840E-15  2.99555E+02 -3.58565E-06  1.0E-07
  4.000E-01  1.21846E-05  8.36427E-15  2.98694E+02 -3.83224E-06  1.0E-07
  4.250E-01  1.37553E-05  8.33869E-15  2.97780E+02 -4.08029E-06  1.0E-07
  4.500E-01  1.54212E-05  8.31168E-15  2.96816E+02 -4.32990E-06  1.0E-07
  4.750E-01  1.71822E-05  8.28327E-15  2.95801E+02 -4.58117E-06  1.0E-07
  5.000E-01  1.90385E-05  8.25347E-15  2.94737E+02 -4.83418E-06  1.0E-07
  5.250E-01  2.09899E-05  8.22230E-15  2.93624E+02 -5.08903E-06  1.0E-07
  5.500E-01  2.30365E-05  8.18980E-15  2.92463E+02 -5.34582E-06  1.0E-07
  5.750E-01  2.51783E-05  8.15597E-15  2.91255E+02 -5.60464E-06  1.0E-07
  6.000E-01  2.74153E-05  8.12086E-15  2.90001E+02 -5.86559E-06  1.0E-07
  6.250E-01  2.97475E-05  8.08449E-15  2.88702E+02 -6.12877E-06  1.0E-07
  6.500E-01  3.21749E-05  8.04687E-15  2.87359E+02 -6.39426E-06  1.0E-07
  6.750E-01  3.46974E-05  8.00805E-15  2.85973E+02 -6.66217E-06  1.0E-07
  7.000E-01  3.73152E-05  7.96804E-15  2.84544E+02 -6.93259E-06  1.0E-07
  7.250E-01  4.00281E-05  7.92688E-15  2.83074E+02 -7.20563E-06  1.0E-07
  7.500E-01  4.28362E-05  7.88459E-15  2.81564E+02 -7.48138E-06  1.0E-07
  7.750E-01  4.57395E-05  7.84121E-15  2.80015E+02 -7.75993E-06  1.0E-07
  8.000E-01  4.87380E-05  7.79677E-15  2.78428E+02 -8.04140E-06  1.0E-07
  8.250E-01  5.18317E-05  7.75128E-15  2.76803E+02 -8.32587E-06  1.0E-07
  8.500E-01  5.50205E-05  7.70480E-15  2.75143E+02 -8.61346E-06  1.0E-07
  8.750E-01  5.83045E-05  7.65734E-15  2.73449E+02 -8.90426E-06  1.0E-07
  9.000E-01  6.16838E-05  7.60895E-15  2.71720E+02 -9.19837E-06  1.0E-07
  9.250E-01  6.51582E-05  7.55964E-15  2.69960E+02 -9.49589E-06  1.0E-07
  9.500E-01  6.87277E-05  7.50946E-15  2.68168E+02 -9.79693E-06  1.0E-07
  9.750E-01  7.23925E-05  7.45843E-15  2.66345E+02 -1.01016E-05  1.0E-07
  1.000E+00  7.61524E-05  7.40660E-15  2.64494E+02 -1.04100E-05  1.0E-07
  1.100E+00  9.21439E-05  7.19179E-15  2.56823E+02 -1.16829E-05  1.0E-07
  1.200E+00  1.09658E-04  6.96661E-15  2.48782E+02 -1.30240E-05  1.0E-07
  1.300E+00  1.28695E-04  6.73314E-15  2.40445E+02 -1.44401E-05  1.0E-07
  1.400E+00  1.49255E-04  6.49339E-15  2.31883E+02 -1.59385E-05  1.0E-07
  1.500E+00  1.71338E-04  6.24929E-15  2.23166E+02 -1.75264E-05  1.0E-07
  1.600E+00  1.94942E-04  6.00267E-15  2.14359E+02 -1.92114E-05  1.0E-07
  1.700E+00  2.20070E-04  5.75523E-15  2.05523E+02 -2.10011E-05  1.0E-07
  1.800E+00  2.46720E-04  5.50851E-15  1.96713E+02 -2.29033E-05  1.0E-07
  1.900E+00  2.74892E-04  5.26393E-15  1.87979E+02 -2.49260E-05  1.0E-07
  2.000E+00  3.04586E-04  5.02274E-15  1.79365E+02 -2.70772E-05  1.0E-07
  2.100E+00  3.35803E-04  4.78601E-15  1.70912E+02 -2.93651E-05  1.0E-07
  2.200E+00  3.68542E-04  4.55469E-15  1.62651E+02 -3.17978E-05  1.0E-07
  2.300E+00  4.02802E-04  4.32956E-15  1.54611E+02 -3.43837E-05  1.0E-07
  2.400E+00  4.38585E-04  4.11126E-15  1.46816E+02 -3.71310E-05  1.0E-07
  2.500E+00  4.75889E-04  3.90030E-15  1.39282E+02 -4.00479E-05  1.0E-07
  2.600E+00  5.14715E-04  3.69706E-15  1.32024E+02 -4.31425E-05  1.0E-07
  2.700E+00  5.55063E-04  3.50182E-15  1.25052E+02 -4.64227E-05  1.0E-07
  2.800E+00  5.96931E-04  3.31475E-15  1.18372E+02 -4.98964E-05  1.0E-07
  2.900E+00  6.40321E-04  3.13593E-15  1.11986E+02 -5.35711E-05  1.0E-07
  3.000E+00  6.85233E-04  2.96537E-15  1.05895E+02 -5.74540E-05  1.0E-07
  3.100E+00  7.31665E-04  2.80301E-15  1.00097E+02 -6.15519E-05  1.0E-07
  3.200E+00  7.79618E-04  2.64874E-15  9.45881E+01 -6.58711E-05  1.0E-07
  3.300E+00  8.29092E-04  2.50238E-15  8.93616E+01 -7.04177E-05  1.0E-07
  3.400E+00  8.80086E-04  2.36374E-15  8.44106E+01 -7.51968E-05  1.0E-07
  3.500E+00  9.32601E-04  2.23257E-15  7.97267E+01 -8.02130E-05  1.0E-07
  3.600E+00  9.86636E-04  2.10864E-15  7.53008E+01 -8.54704E-05  1.0E-07
  3.700E+00  1.04219E-03  1.99165E-15  7.11229E+01 -9.09721E-05  1.0E-07
  3.800E+00  1.09927E-03  1.88131E-15  6.71830E+01 -9.67204E-05  1.0E-07
  3.900E+00  1.15786E-03  1.77735E-15  6.34703E+01 -1.02717E-04  1.0E-07
  4.000E+00  1.21797E-03  1.67945E-15  5.99743E+01 -1.08961E-04  1.0E-07
  4.100E+00  1.27961E-03  1.58732E-15  5.66843E+01 -1.15454E-04  1.0E-07
  4.200E+00  1.34276E-03  1.50067E-15  5.35898E+01 -1.22192E-04  1.0E-07
  4.300E+00  1.40743E-03  1.41919E-15  5.06802E+01 -1.29174E-04  1.0E-07
  4.400E+00  1.47362E-03  1.34261E-15  4.79456E+01 -1.36395E-04  1.0E-07
  4.500E+00  1.54133E-03  1.27066E-15  4.53760E+01 -1.43851E-04  1.0E-07
  4.600E+00  1.61056E-03  1.20306E-15  4.29620E+01 -1.51535E-04  1.0E-07
  4.700E+00  1.68131E-03  1.13956E-15  4.06943E+01 -1.59440E-04  1.0E-07
  4.800E+00  1.75357E-03  1.07991E-15  3.85643E+01 -1.67556E-04  1.0E-07
  4.900E+00  1.82735E-03  1.02388E-15  3.65635E+01 -1.75875E-04  1.0E-07
  5.000E+00  1.90265E-03  9.71252E-16  3.46840E+01 -1.84384E-04  1.0E-07
  5.100E+00  1.97947E-03  9.21807E-16  3.29183E+01 -1.93072E-04  1.0E-07
  5.200E+00  2.05780E-03  8.75347E-16  3.12592E+01 -2.01925E-04  1.0E-07
  5.300E+00  2.13765E-03  8.31684E-16  2.97000E+01 -2.10929E-04  1.0E-07
  5.400E+00  2.21902E-03  7.90639E-16  2.82342E+01 -2.20067E-04  1.0E-07
  5.500E+00  2.30190E-03  7.52044E-16  2.68560E+01 -2.29323E-04  1.0E-07
  5.600E+00  2.38630E-03  7.15742E-16  2.55596E+01 -2.38679E-04  1.0E-07
  5.700E+00  2.47222E-03  6.81584E-16  2.43398E+01 -2.48116E-04  1.0E-07
  5.800E+00  2.55965E-03  6.49431E-16  2.31916E+01 -2.57614E-04  1.0E-07
  5.900E+00  2.64859E-03  6.19154E-16  2.21104E+01 -2.67152E-04  1.0E-07
  6.000E+00  2.73905E-03  5.90631E-16  2.10918E+01 -2.76709E-04  1.0E-07
  6.100E+00  2.83103E-03  5.63748E-16  2.01318E+01 -2.86262E-04  1.0E-07
  6.200E+00  2.92452E-03  5.38399E-16  1.92266E+01 -2.95788E-04  1.0E-07
  6.300E+00  3.01952E-03  5.14485E-16  1.83726E+01 -3.05264E-04  1.0E-07
  6.400E+00  3.11604E-03  4.91913E-16  1.75665E+01 -3.14664E-04  1.0E-07
  6.500E+00  3.21407E-03  4.70597E-16  1.68053E+01 -3.23965E-04  1.0E-07
  6.600E+00  3.31362E-03  4.50457E-16  1.60861E+01 -3.33139E-04  1.0E-07
  6.700E+00  3.41468E-03  4.31417E-16  1.54062E+01 -3.42162E-04  1.0E-07
  6.800E+00  3.51725E-03  4.13407E-16  1.47630E+01 -3.51006E-04  1.0E-07
  6.900E+00  3.62133E-03  3.96362E-16  1.41544E+01 -3.59645E-04  1.0E-07
  7.000E+00  3.72692E-03  3.80222E-16  1.35780E+01 -3.68051E-04  1.0E-07
  7.100E+00  3.83403E-03  3.64930E-16  1.30319E+01 -3.76197E-04  1.0E-07
  7.200E+00  3.94265E-03  3.50434E-16  1.25142E+01 -3.84056E-04  1.0E-07
  7.300E+00  4.05278E-03  3.36683E-16  1.20232E+01 -3.91599E-04  1.0E-07
  7.400E+00  4.16442E-03  3.23633E-16  1.15571E+01 -3.98798E-04  1.0E-07
  7.500E+00  4.27757E-03  3.11241E-16  1.11146E+01 -4.05624E-04  1.0E-07
  7.600E+00  4.39223E-03  2.99466E-16  1.06941E+01 -4.12051E-04  1.0E-07
  7.700E+00  4.50840E-03  2.88273E-16  1.02944E+01 -4.18048E-04  1.0E-07
  7.800E+00  4.62608E-03  2.77625E-16  9.91418E+00 -4.23587E-04  1.0E-07
  7.900E+00  4.74527E-03  2.67492E-16  9.55232E+00 -4.28641E-04  1.0E-07
  8.000E+00  4.86597E-03  2.57843E-16  9.20775E+00 -4.33179E-04  1.0E-07
  8.100E+00  4.98817E-03  2.48650E-16  8.87945E+00 -4.37175E-04  1.0E-07
  8.200E+00  5.11188E-03  2.39887E-16  8.56651E+00 -4.40598E-04  1.0E-07
  8.300E+00  5.23711E-03  2.31528E-16  8.26803E+00 -4.43422E-04  1.0E-07
  8.400E+00  5.36383E-03  2.23552E-16  7.98320E+00 -4.45617E-04  1.0E-07
  8.500E+00  5.49207E-03  2.15938E-16  7.71127E+00 -4.47155E-04  1.0E-07
  8.600E+00  5.62181E-03  2.08664E-16  7.45151E+00 -4.48009E-04  1.0E-07
  8.700E+00  5.75306E-03  2.01712E-16  7.20326E+00 -4.48150E-04  1.0E-07
  8.800E+00  5.88581E-03  1.95065E-16  6.96589E+00 -4.47551E-04  1.0E-07
  8.900E+00  6.02007E-03  1.88706E-16  6.73881E+00 -4.46184E-04  1.0E-07
  9.000E+00  6.15583E-03  1.82620E-16  6.52148E+00 -4.44023E-04  1.0E-07
  9.100E+00  6.29310E-03  1.76793E-16  6.31338E+00 -4.41039E-04  1.0E-07
  9.200E+00  6.43187E-03  1.71210E-16  6.11403E+00 -4.37206E-04  1.0E-07
  9.300E+00  6.57214E-03  1.65860E-16  5.92298E+00 -4.32497E-04  1.0E-07
  9.400E+00  6.71392E-03  1.60731E-16  5.73979E+00 -4.26887E-04  1.0E-07
  9.500E+00  6.85720E-03  1.55810E-16  5.56408E+00 -4.20350E-04  1.0E-07
  9.600E+00  7.00198E-03  1.51088E-16  5.39546E+00 -4.12859E-04  1.0E-07
  9.700E+00  7.14827E-03  1.46555E-16  5.23358E+00 -4.04390E-04  1.0E-07
  9.800E+00  7.29605E-03  1.42201E-16  5.07811E+00 -3.94919E-04  1.0E-07
  9.900E+00  7.44534E-03  1.38019E-16  4.92873E+00 -3.84419E-04  1.0E-07
  1.000E+01  7.59612E-03  1.33998E-16  4.78516E+00 -3.72869E-04  1.0E-07
  1.025E+01  7.97965E-03  1.24608E-16  4.44982E+00 -3.39239E-04  1.0E-07
  1.050E+01  8.37255E-03  1.16075E-16  4.14512E+00 -2.98539E-04  1.0E-07
  1.075E+01  8.77480E-03  1.08305E-16  3.86766E+00 -2.50434E-04  1.0E-07
  1.100E+01  9.18641E-03  1.01215E-16  3.61446E+00 -1.94615E-04  1.0E-07
  1.125E+01  9.60736E-03  9.47326E-17  3.38296E+00 -1.30796E-04  1.0E-07
  1.150E+01  1.00376E-02  8.87942E-17  3.17090E+00 -5.87193E-05  1.0E-07
  1.175E+01  1.04773E-02  8.33445E-17  2.97629E+00  2.18458E-05  1.0E-07
  1.200E+01  1.09262E-02  7.83348E-17  2.79739E+00  1.11097E-04  1.0E-07
  1.225E+01  1.13844E-02  7.37219E-17  2.63266E+00  2.09202E-04  1.0E-07
  1.250E+01  1.18520E-02  6.94676E-17  2.48073E+00  3.16291E-04  1.0E-07
  1.275E+01  1.23288E-02  6.55381E-17  2.34041E+00  4.32461E-04  1.0E-07
  1.300E+01  1.28150E-02  6.19032E-17  2.21060E+00  5.57774E-04  1.0E-07
  1.325E+01  1.33104E-02  5.85361E-17  2.09036E+00  6.92251E-04  1.0E-07
  1.350E+01  1.38150E-02  5.54128E-17  1.97883E+00  8.35879E-04  1.0E-07
  1.375E+01  1.43290E-02  5.25118E-17  1.87523E+00  9.88604E-04  1.0E-07
  1.400E+01  1.48521E-02  4.98138E-17  1.77888E+00  1.15033E-03  1.0E-07
  1.425E+01  1.53845E-02  4.73014E-17  1.68916E+00  1.32094E-03  1.0E-07
  1.450E+01  1.59262E-02  4.49590E-17  1.60552E+00  1.50025E-03  1.0E-07
  1.475E+01  1.64770E-02  4.27726E-17  1.52744E+00  1.68806E-03  1.0E-07
  1.500E+01  1.70371E-02  4.07294E-17  1.45447E+00  1.88412E-03  1.0E-07
