 #
 # Subroutine ELSEPA. Elastic scattering of electrons and positrons
 #                    by neutral atoms and positive ions
 #
 # Projectile: electron
 # Kinetic energy = 6.00000E+02 eV = 2.20496E+01 a.u.
 #
 # Element: Hg,  Z =  80,  atomic weight = 2.00590E+02 g/mol
 #
 # Nuclear model: Fermi distribution
 #                Average radius = 6.26355E-13 cm
 #                Skin thickness = 5.46000E-14 cm
 #
 # Number of electrons = 80
 #
 # Electron density: analytical TFD model
 #                   A1 =  1.19007D-01 ,   ALPHA1 = 2.60190D+01
 #                   A2 =  5.60270D-01 ,   ALPHA2 = 5.45128D+00
 #                   A3 =  3.20724D-01 ,   ALPHA3 = 1.55122D+00
 #                   Volume integral = 8.00000E+01
 #
 # Furness-McCarthy exchange potential
 #
 # Total elastic cross section = 4.03278E-16 cm**2 = 1.44013E+01 a0**2
 # 1st transport cross section = 1.05350E-16 cm**2 = 3.76213E+00 a0**2
 # 2nd transport cross section = 1.19737E-16 cm**2 = 4.27588E+00 a0**2
 #
 #
 # Differential cross section:                       MU=(1-COS(THETA))/2
 #
 #  THETA        MU          DCS          DCS        Sherman      error
 #  (deg)                 (cm**2/sr)   (a0**2/sr)    function
 #----------------------------------------------------------------------
  0.000E+00  0.00000E+00  3.62730E-15  1.29533E+02  0.00000E+00  1.0E-07
  1.000E-04  7.61557E-13  3.62730E-15  1.29533E+02  4.17165E-09  1.0E-07
  1.250E-04  1.18994E-12  3.62730E-15  1.29533E+02  5.21456E-09  1.0E-07
  1.500E-04  1.71346E-12  3.62730E-15  1.29533E+02  6.25747E-09  1.0E-07
  1.750E-04  2.33225E-12  3.62730E-15  1.29533E+02  7.30039E-09  1.0E-07
  2.000E-04  3.04617E-12  3.62730E-15  1.29533E+02  8.34330E-09  1.0E-07
  2.250E-04  3.85530E-12  3.62730E-15  1.29533E+02  9.38621E-09  1.0E-07
  2.500E-04  4.75964E-12  3.62730E-15  1.29533E+02  1.04291E-08  1.0E-07
  2.750E-04  5.75917E-12  3.62730E-15  1.29533E+02  1.14720E-08  1.0E-07
  3.000E-04  6.85391E-12  3.62730E-15  1.29533E+02  1.25149E-08  1.0E-07
  3.250E-04  8.04379E-12  3.62730E-15  1.29533E+02  1.35579E-08  1.0E-07
  3.500E-04  9.32893E-12  3.62730E-15  1.29533E+02  1.46008E-08  1.0E-07
  3.750E-04  1.07092E-11  3.62730E-15  1.29533E+02  1.56437E-08  1.0E-07
  4.000E-04  1.21847E-11  3.62730E-15  1.29533E+02  1.66866E-08  1.0E-07
  4.250E-04  1.37554E-11  3.62730E-15  1.29533E+02  1.77295E-08  1.0E-07
  4.500E-04  1.54213E-11  3.62730E-15  1.29533E+02  1.87724E-08  1.0E-07
  4.750E-04  1.71823E-11  3.62730E-15  1.29533E+02  1.98153E-08  1.0E-07
  5.000E-04  1.90386E-11  3.62730E-15  1.29533E+02  2.08582E-08  1.0E-07
  5.250E-04  2.09900E-11  3.62730E-15  1.29533E+02  2.19012E-08  1.0E-07
  5.500E-04  2.30367E-11  3.62730E-15  1.29533E+02  2.29441E-08  1.0E-07
  5.750E-04  2.51785E-11  3.62730E-15  1.29533E+02  2.39870E-08  1.0E-07
  6.000E-04  2.74156E-11  3.62730E-15  1.29533E+02  2.50299E-08  1.0E-07
  6.250E-04  2.97478E-11  3.62730E-15  1.29533E+02  2.60728E-08  1.0E-07
  6.500E-04  3.21752E-11  3.62730E-15  1.29533E+02  2.71157E-08  1.0E-07
  6.750E-04  3.46979E-11  3.62730E-15  1.29533E+02  2.81586E-08  1.0E-07
  7.000E-04  3.73157E-11  3.62730E-15  1.29533E+02  2.92015E-08  1.0E-07
  7.250E-04  4.00286E-11  3.62730E-15  1.29533E+02  3.02445E-08  1.0E-07
  7.500E-04  4.28368E-11  3.62730E-15  1.29533E+02  3.12874E-08  1.0E-07
  7.750E-04  4.57402E-11  3.62730E-15  1.29533E+02  3.23303E-08  1.0E-07
  8.000E-04  4.87388E-11  3.62730E-15  1.29533E+02  3.33732E-08  1.0E-07
  8.250E-04  5.18325E-11  3.62730E-15  1.29533E+02  3.44161E-08  1.0E-07
  8.500E-04  5.50215E-11  3.62730E-15  1.29533E+02  3.54590E-08  1.0E-07
  8.750E-04  5.83057E-11  3.62730E-15  1.29533E+02  3.65019E-08  1.0E-07
  9.000E-04  6.16850E-11  3.62730E-15  1.29533E+02  3.75448E-08  1.0E-07
  9.250E-04  6.51595E-11  3.62730E-15  1.29533E+02  3.85878E-08  1.0E-07
  9.500E-04  6.87293E-11  3.62730E-15  1.29533E+02  3.96307E-08  1.0E-07
  9.750E-04  7.23943E-11  3.62730E-15  1.29533E+02  4.06736E-08  1.0E-07
  1.000E-03  7.61544E-11  3.62730E-15  1.29533E+02  4.17165E-08  1.0E-07
  1.250E-03  1.18991E-10  3.62730E-15  1.29533E+02  5.21456E-08  1.0E-07
  1.500E-03  1.71347E-10  3.62730E-15  1.29533E+02  6.25747E-08  1.0E-07
  1.750E-03  2.33223E-10  3.62730E-15  1.29533E+02  7.30039E-08  1.0E-07
  2.000E-03  3.04617E-10  3.62730E-15  1.29533E+02  8.34330E-08  1.0E-07
  2.250E-03  3.85531E-10  3.62730E-15  1.29533E+02  9.38621E-08  1.0E-07
  2.500E-03  4.75965E-10  3.62730E-15  1.29533E+02  1.04291E-07  1.0E-07
  2.750E-03  5.75917E-10  3.62730E-15  1.29533E+02  1.14720E-07  1.0E-07
  3.000E-03  6.85389E-10  3.62730E-15  1.29533E+02  1.25149E-07  1.0E-07
  3.250E-03  8.04380E-10  3.62730E-15  1.29533E+02  1.35579E-07  1.0E-07
  3.500E-03  9.32891E-10  3.62730E-15  1.29533E+02  1.46008E-07  1.0E-07
  3.750E-03  1.07092E-09  3.62730E-15  1.29533E+02  1.56437E-07  1.0E-07
  4.000E-03  1.21847E-09  3.62730E-15  1.29533E+02  1.66866E-07  1.0E-07
  4.250E-03  1.37554E-09  3.62730E-15  1.29533E+02  1.77295E-07  1.0E-07
  4.500E-03  1.54213E-09  3.62730E-15  1.29533E+02  1.87724E-07  1.0E-07
  4.750E-03  1.71823E-09  3.62730E-15  1.29533E+02  1.98153E-07  1.0E-07
  5.000E-03  1.90386E-09  3.62730E-15  1.29533E+02  2.08582E-07  1.0E-07
  5.250E-03  2.09900E-09  3.62730E-15  1.29533E+02  2.19012E-07  1.0E-07
  5.500E-03  2.30367E-09  3.62730E-15  1.29533E+02  2.29441E-07  1.0E-07
  5.750E-03  2.51785E-09  3.62730E-15  1.29533E+02  2.39870E-07  1.0E-07
  6.000E-03  2.74156E-09  3.62730E-15  1.29533E+02  2.50299E-07  1.0E-07
  6.250E-03  2.97478E-09  3.62730E-15  1.29533E+02  2.60728E-07  1.0E-07
  6.500E-03  3.21752E-09  3.62730E-15  1.29533E+02  2.71157E-07  1.0E-07
  6.750E-03  3.46978E-09  3.62730E-15  1.29533E+02  2.81586E-07  1.0E-07
  7.000E-03  3.73156E-09  3.62730E-15  1.29533E+02  2.92015E-07  1.0E-07
  7.250E-03  4.00286E-09  3.62730E-15  1.29533E+02  3.02444E-07  1.0E-07
  7.500E-03  4.28368E-09  3.62730E-15  1.29533E+02  3.12874E-07  1.0E-07
  7.750E-03  4.57402E-09  3.62730E-15  1.29533E+02  3.23303E-07  1.0E-07
  8.000E-03  4.87388E-09  3.62730E-15  1.29533E+02  3.33732E-07  1.0E-07
  8.250E-03  5.18326E-09  3.62730E-15  1.29533E+02  3.44161E-07  1.0E-07
  8.500E-03  5.50215E-09  3.62729E-15  1.29533E+02  3.54590E-07  1.0E-07
  8.750E-03  5.83057E-09  3.62729E-15  1.29533E+02  3.65019E-07  1.0E-07
  9.000E-03  6.16850E-09  3.62729E-15  1.29533E+02  3.75448E-07  1.0E-07
  9.250E-03  6.51596E-09  3.62729E-15  1.29533E+02  3.85877E-07  1.0E-07
  9.500E-03  6.87293E-09  3.62729E-15  1.29533E+02  3.96307E-07  1.0E-07
  9.750E-03  7.23942E-09  3.62729E-15  1.29533E+02  4.06736E-07  1.0E-07
  1.000E-02  7.61544E-09  3.62729E-15  1.29533E+02  4.17165E-07  1.0E-07
  1.250E-02  1.18991E-08  3.62729E-15  1.29533E+02  5.21456E-07  1.0E-07
  1.500E-02  1.71347E-08  3.62729E-15  1.29533E+02  6.25747E-07  1.0E-07
  1.750E-02  2.33223E-08  3.62728E-15  1.29533E+02  7.30038E-07  1.0E-07
  2.000E-02  3.04617E-08  3.62727E-15  1.29532E+02  8.34329E-07  1.0E-07
  2.250E-02  3.85531E-08  3.62727E-15  1.29532E+02  9.38619E-07  1.0E-07
  2.500E-02  4.75965E-08  3.62726E-15  1.29532E+02  1.04291E-06  1.0E-07
  2.750E-02  5.75917E-08  3.62725E-15  1.29532E+02  1.14720E-06  1.0E-07
  3.000E-02  6.85389E-08  3.62724E-15  1.29531E+02  1.25149E-06  1.0E-07
  3.250E-02  8.04380E-08  3.62723E-15  1.29531E+02  1.35578E-06  1.0E-07
  3.500E-02  9.32891E-08  3.62722E-15  1.29530E+02  1.46007E-06  1.0E-07
  3.750E-02  1.07092E-07  3.62721E-15  1.29530E+02  1.56436E-06  1.0E-07
  4.000E-02  1.21847E-07  3.62720E-15  1.29530E+02  1.66865E-06  1.0E-07
  4.250E-02  1.37554E-07  3.62719E-15  1.29529E+02  1.77294E-06  1.0E-07
  4.500E-02  1.54213E-07  3.62717E-15  1.29529E+02  1.87723E-06  1.0E-07
  4.750E-02  1.71823E-07  3.62716E-15  1.29528E+02  1.98152E-06  1.0E-07
  5.000E-02  1.90386E-07  3.62714E-15  1.29528E+02  2.08581E-06  1.0E-07
  5.250E-02  2.09900E-07  3.62713E-15  1.29527E+02  2.19010E-06  1.0E-07
  5.500E-02  2.30367E-07  3.62711E-15  1.29526E+02  2.29438E-06  1.0E-07
  5.750E-02  2.51785E-07  3.62709E-15  1.29526E+02  2.39867E-06  1.0E-07
  6.000E-02  2.74156E-07  3.62707E-15  1.29525E+02  2.50296E-06  1.0E-07
  6.250E-02  2.97478E-07  3.62705E-15  1.29524E+02  2.60725E-06  1.0E-07
  6.500E-02  3.21752E-07  3.62703E-15  1.29524E+02  2.71153E-06  1.0E-07
  6.750E-02  3.46978E-07  3.62701E-15  1.29523E+02  2.81582E-06  1.0E-07
  7.000E-02  3.73156E-07  3.62699E-15  1.29522E+02  2.92011E-06  1.0E-07
  7.250E-02  4.00286E-07  3.62697E-15  1.29521E+02  3.02439E-06  1.0E-07
  7.500E-02  4.28368E-07  3.62695E-15  1.29521E+02  3.12868E-06  1.0E-07
  7.750E-02  4.57402E-07  3.62692E-15  1.29520E+02  3.23297E-06  1.0E-07
  8.000E-02  4.87388E-07  3.62690E-15  1.29519E+02  3.33725E-06  1.0E-07
  8.250E-02  5.18325E-07  3.62687E-15  1.29518E+02  3.44153E-06  1.0E-07
  8.500E-02  5.50215E-07  3.62685E-15  1.29517E+02  3.54582E-06  1.0E-07
  8.750E-02  5.83057E-07  3.62682E-15  1.29516E+02  3.65010E-06  1.0E-07
  9.000E-02  6.16850E-07  3.62679E-15  1.29515E+02  3.75439E-06  1.0E-07
  9.250E-02  6.51596E-07  3.62676E-15  1.29514E+02  3.85867E-06  1.0E-07
  9.500E-02  6.87293E-07  3.62673E-15  1.29513E+02  3.96295E-06  1.0E-07
  9.750E-02  7.23942E-07  3.62670E-15  1.29512E+02  4.06723E-06  1.0E-07
  1.000E-01  7.61543E-07  3.62667E-15  1.29511E+02  4.17151E-06  1.0E-07
  1.250E-01  1.18991E-06  3.62632E-15  1.29498E+02  5.21430E-06  1.0E-07
  1.500E-01  1.71347E-06  3.62589E-15  1.29483E+02  6.25702E-06  1.0E-07
  1.750E-01  2.33223E-06  3.62538E-15  1.29465E+02  7.29966E-06  1.0E-07
  2.000E-01  3.04617E-06  3.62479E-15  1.29444E+02  8.34222E-06  1.0E-07
  2.250E-01  3.85531E-06  3.62412E-15  1.29420E+02  9.38467E-06  1.0E-07
  2.500E-01  4.75964E-06  3.62338E-15  1.29393E+02  1.04270E-05  1.0E-07
  2.750E-01  5.75916E-06  3.62256E-15  1.29364E+02  1.14692E-05  1.0E-07
  3.000E-01  6.85388E-06  3.62166E-15  1.29332E+02  1.25113E-05  1.0E-07
  3.250E-01  8.04378E-06  3.62068E-15  1.29297E+02  1.35532E-05  1.0E-07
  3.500E-01  9.32888E-06  3.61962E-15  1.29259E+02  1.45950E-05  1.0E-07
  3.750E-01  1.07092E-05  3.61849E-15  1.29219E+02  1.56365E-05  1.0E-07
  4.000E-01  1.21846E-05  3.61728E-15  1.29175E+02  1.66779E-05  1.0E-07
  4.250E-01  1.37553E-05  3.61599E-15  1.29129E+02  1.77191E-05  1.0E-07
  4.500E-01  1.54212E-05  3.61462E-15  1.29080E+02  1.87601E-05  1.0E-07
  4.750E-01  1.71822E-05  3.61317E-15  1.29029E+02  1.98008E-05  1.0E-07
  5.000E-01  1.90385E-05  3.61165E-15  1.28974E+02  2.08413E-05  1.0E-07
  5.250E-01  2.09899E-05  3.61005E-15  1.28917E+02  2.18815E-05  1.0E-07
  5.500E-01  2.30365E-05  3.60838E-15  1.28858E+02  2.29214E-05  1.0E-07
  5.750E-01  2.51783E-05  3.60663E-15  1.28795E+02  2.39611E-05  1.0E-07
  6.000E-01  2.74153E-05  3.60480E-15  1.28730E+02  2.50005E-05  1.0E-07
  6.250E-01  2.97475E-05  3.60289E-15  1.28662E+02  2.60395E-05  1.0E-07
  6.500E-01  3.21749E-05  3.60091E-15  1.28591E+02  2.70782E-05  1.0E-07
  6.750E-01  3.46974E-05  3.59885E-15  1.28517E+02  2.81166E-05  1.0E-07
  7.000E-01  3.73152E-05  3.59671E-15  1.28441E+02  2.91546E-05  1.0E-07
  7.250E-01  4.00281E-05  3.59450E-15  1.28362E+02  3.01923E-05  1.0E-07
  7.500E-01  4.28362E-05  3.59222E-15  1.28280E+02  3.12295E-05  1.0E-07
  7.750E-01  4.57395E-05  3.58985E-15  1.28196E+02  3.22664E-05  1.0E-07
  8.000E-01  4.87380E-05  3.58742E-15  1.28109E+02  3.33028E-05  1.0E-07
  8.250E-01  5.18317E-05  3.58490E-15  1.28019E+02  3.43388E-05  1.0E-07
  8.500E-01  5.50205E-05  3.58231E-15  1.27927E+02  3.53744E-05  1.0E-07
  8.750E-01  5.83045E-05  3.57965E-15  1.27832E+02  3.64095E-05  1.0E-07
  9.000E-01  6.16838E-05  3.57691E-15  1.27734E+02  3.74441E-05  1.0E-07
  9.250E-01  6.51582E-05  3.57410E-15  1.27634E+02  3.84783E-05  1.0E-07
  9.500E-01  6.87277E-05  3.57122E-15  1.27530E+02  3.95119E-05  1.0E-07
  9.750E-01  7.23925E-05  3.56826E-15  1.27425E+02  4.05450E-05  1.0E-07
  1.000E+00  7.61524E-05  3.56522E-15  1.27316E+02  4.15775E-05  1.0E-07
  1.100E+00  9.21439E-05  3.55236E-15  1.26857E+02  4.57020E-05  1.0E-07
  1.200E+00  1.09658E-04  3.53834E-15  1.26356E+02  4.98164E-05  1.0E-07
  1.300E+00  1.28695E-04  3.52318E-15  1.25815E+02  5.39197E-05  1.0E-07
  1.400E+00  1.49255E-04  3.50689E-15  1.25233E+02  5.80106E-05  1.0E-07
  1.500E+00  1.71338E-04  3.48951E-15  1.24613E+02  6.20878E-05  1.0E-07
  1.600E+00  1.94942E-04  3.47105E-15  1.23954E+02  6.61499E-05  1.0E-07
  1.700E+00  2.20070E-04  3.45154E-15  1.23257E+02  7.01956E-05  1.0E-07
  1.800E+00  2.46720E-04  3.43099E-15  1.22523E+02  7.42234E-05  1.0E-07
  1.900E+00  2.74892E-04  3.40944E-15  1.21753E+02  7.82315E-05  1.0E-07
  2.000E+00  3.04586E-04  3.38691E-15  1.20949E+02  8.22184E-05  1.0E-07
  2.100E+00  3.35803E-04  3.36342E-15  1.20110E+02  8.61821E-05  1.0E-07
  2.200E+00  3.68542E-04  3.33902E-15  1.19238E+02  9.01208E-05  1.0E-07
  2.300E+00  4.02802E-04  3.31371E-15  1.18335E+02  9.40324E-05  1.0E-07
  2.400E+00  4.38585E-04  3.28755E-15  1.17400E+02  9.79148E-05  1.0E-07
  2.500E+00  4.75889E-04  3.26054E-15  1.16436E+02  1.01766E-04  1.0E-07
  2.600E+00  5.14715E-04  3.23274E-15  1.15443E+02  1.05583E-04  1.0E-07
  2.700E+00  5.55063E-04  3.20416E-15  1.14423E+02  1.09363E-04  1.0E-07
  2.800E+00  5.96931E-04  3.17484E-15  1.13376E+02  1.13104E-04  1.0E-07
  2.900E+00  6.40321E-04  3.14482E-15  1.12303E+02  1.16803E-04  1.0E-07
  3.000E+00  6.85233E-04  3.11412E-15  1.11207E+02  1.20457E-04  1.0E-07
  3.100E+00  7.31665E-04  3.08278E-15  1.10088E+02  1.24062E-04  1.0E-07
  3.200E+00  7.79618E-04  3.05083E-15  1.08947E+02  1.27616E-04  1.0E-07
  3.300E+00  8.29092E-04  3.01830E-15  1.07786E+02  1.31114E-04  1.0E-07
  3.400E+00  8.80086E-04  2.98524E-15  1.06605E+02  1.34553E-04  1.0E-07
  3.500E+00  9.32601E-04  2.95167E-15  1.05406E+02  1.37929E-04  1.0E-07
  3.600E+00  9.86636E-04  2.91762E-15  1.04190E+02  1.41238E-04  1.0E-07
  3.700E+00  1.04219E-03  2.88314E-15  1.02959E+02  1.44475E-04  1.0E-07
  3.800E+00  1.09927E-03  2.84825E-15  1.01713E+02  1.47635E-04  1.0E-07
  3.900E+00  1.15786E-03  2.81299E-15  1.00454E+02  1.50714E-04  1.0E-07
  4.000E+00  1.21797E-03  2.77738E-15  9.91821E+01  1.53707E-04  1.0E-07
  4.100E+00  1.27961E-03  2.74147E-15  9.78998E+01  1.56608E-04  1.0E-07
  4.200E+00  1.34276E-03  2.70529E-15  9.66075E+01  1.59411E-04  1.0E-07
  4.300E+00  1.40743E-03  2.66886E-15  9.53066E+01  1.62111E-04  1.0E-07
  4.400E+00  1.47362E-03  2.63222E-15  9.39982E+01  1.64701E-04  1.0E-07
  4.500E+00  1.54133E-03  2.59540E-15  9.26833E+01  1.67175E-04  1.0E-07
  4.600E+00  1.61056E-03  2.55842E-15  9.13630E+01  1.69526E-04  1.0E-07
  4.700E+00  1.68131E-03  2.52133E-15  9.00384E+01  1.71747E-04  1.0E-07
  4.800E+00  1.75357E-03  2.48415E-15  8.87105E+01  1.73831E-04  1.0E-07
  4.900E+00  1.82735E-03  2.44690E-15  8.73804E+01  1.75768E-04  1.0E-07
  5.000E+00  1.90265E-03  2.40962E-15  8.60490E+01  1.77553E-04  1.0E-07
  5.100E+00  1.97947E-03  2.37233E-15  8.47174E+01  1.79175E-04  1.0E-07
  5.200E+00  2.05780E-03  2.33506E-15  8.33864E+01  1.80626E-04  1.0E-07
  5.300E+00  2.13765E-03  2.29783E-15  8.20570E+01  1.81897E-04  1.0E-07
  5.400E+00  2.21902E-03  2.26067E-15  8.07301E+01  1.82978E-04  1.0E-07
  5.500E+00  2.30190E-03  2.22361E-15  7.94066E+01  1.83859E-04  1.0E-07
  5.600E+00  2.38630E-03  2.18666E-15  7.80872E+01  1.84529E-04  1.0E-07
  5.700E+00  2.47222E-03  2.14986E-15  7.67728E+01  1.84979E-04  1.0E-07
  5.800E+00  2.55965E-03  2.11321E-15  7.54641E+01  1.85195E-04  1.0E-07
  5.900E+00  2.64859E-03  2.07675E-15  7.41619E+01  1.85167E-04  1.0E-07
  6.000E+00  2.73905E-03  2.04048E-15  7.28670E+01  1.84883E-04  1.0E-07
  6.100E+00  2.83103E-03  2.00444E-15  7.15800E+01  1.84329E-04  1.0E-07
  6.200E+00  2.92452E-03  1.96864E-15  7.03015E+01  1.83492E-04  1.0E-07
  6.300E+00  3.01952E-03  1.93310E-15  6.90322E+01  1.82360E-04  1.0E-07
  6.400E+00  3.11604E-03  1.89783E-15  6.77727E+01  1.80916E-04  1.0E-07
  6.500E+00  3.21407E-03  1.86285E-15  6.65235E+01  1.79148E-04  1.0E-07
  6.600E+00  3.31362E-03  1.82817E-15  6.52853E+01  1.77039E-04  1.0E-07
  6.700E+00  3.41468E-03  1.79382E-15  6.40584E+01  1.74575E-04  1.0E-07
  6.800E+00  3.51725E-03  1.75979E-15  6.28434E+01  1.71738E-04  1.0E-07
  6.900E+00  3.62133E-03  1.72611E-15  6.16407E+01  1.68511E-04  1.0E-07
  7.000E+00  3.72692E-03  1.69279E-15  6.04507E+01  1.64878E-04  1.0E-07
  7.100E+00  3.83403E-03  1.65984E-15  5.92739E+01  1.60820E-04  1.0E-07
  7.200E+00  3.94265E-03  1.62726E-15  5.81105E+01  1.56320E-04  1.0E-07
  7.300E+00  4.05278E-03  1.59507E-15  5.69610E+01  1.51356E-04  1.0E-07
  7.400E+00  4.16442E-03  1.56328E-15  5.58257E+01  1.45911E-04  1.0E-07
  7.500E+00  4.27757E-03  1.53189E-15  5.47047E+01  1.39963E-04  1.0E-07
  7.600E+00  4.39223E-03  1.50091E-15  5.35985E+01  1.33492E-04  1.0E-07
  7.700E+00  4.50840E-03  1.47035E-15  5.25072E+01  1.26475E-04  1.0E-07
  7.800E+00  4.62608E-03  1.44021E-15  5.14310E+01  1.18892E-04  1.0E-07
  7.900E+00  4.74527E-03  1.41051E-15  5.03701E+01  1.10718E-04  1.0E-07
  8.000E+00  4.86597E-03  1.38123E-15  4.93247E+01  1.01931E-04  1.0E-07
  8.100E+00  4.98817E-03  1.35240E-15  4.82950E+01  9.25064E-05  1.0E-07
  8.200E+00  5.11188E-03  1.32400E-15  4.72810E+01  8.24193E-05  1.0E-07
  8.300E+00  5.23711E-03  1.29605E-15  4.62829E+01  7.16444E-05  1.0E-07
  8.400E+00  5.36383E-03  1.26855E-15  4.53007E+01  6.01559E-05  1.0E-07
  8.500E+00  5.49207E-03  1.24149E-15  4.43345E+01  4.79270E-05  1.0E-07
  8.600E+00  5.62181E-03  1.21488E-15  4.33843E+01  3.49305E-05  1.0E-07
  8.700E+00  5.75306E-03  1.18873E-15  4.24502E+01  2.11385E-05  1.0E-07
  8.800E+00  5.88581E-03  1.16302E-15  4.15322E+01  6.52255E-06  1.0E-07
  8.900E+00  6.02007E-03  1.13776E-15  4.06303E+01 -8.94658E-06  1.0E-07
  9.000E+00  6.15583E-03  1.11296E-15  3.97444E+01 -2.52986E-05  1.0E-07
  9.100E+00  6.29310E-03  1.08860E-15  3.88745E+01 -4.25638E-05  1.0E-07
  9.200E+00  6.43187E-03  1.06468E-15  3.80205E+01 -6.07732E-05  1.0E-07
  9.300E+00  6.57214E-03  1.04122E-15  3.71825E+01 -7.99582E-05  1.0E-07
  9.400E+00  6.71392E-03  1.01819E-15  3.63603E+01 -1.00151E-04  1.0E-07
  9.500E+00  6.85720E-03  9.95609E-16  3.55538E+01 -1.21384E-04  1.0E-07
  9.600E+00  7.00198E-03  9.73463E-16  3.47630E+01 -1.43690E-04  1.0E-07
  9.700E+00  7.14827E-03  9.51751E-16  3.39876E+01 -1.67104E-04  1.0E-07
  9.800E+00  7.29605E-03  9.30471E-16  3.32277E+01 -1.91659E-04  1.0E-07
  9.900E+00  7.44534E-03  9.09618E-16  3.24830E+01 -2.17390E-04  1.0E-07
  1.000E+01  7.59612E-03  8.89188E-16  3.17535E+01 -2.44331E-04  1.0E-07
  1.025E+01  7.97965E-03  8.39940E-16  2.99948E+01 -3.17217E-04  1.0E-07
  1.050E+01  8.37255E-03  7.93242E-16  2.83272E+01 -3.98457E-04  1.0E-07
  1.075E+01  8.77480E-03  7.49018E-16  2.67479E+01 -4.88628E-04  1.0E-07
  1.100E+01  9.18641E-03  7.07184E-16  2.52540E+01 -5.88314E-04  1.0E-07
  1.125E+01  9.60736E-03  6.67654E-16  2.38424E+01 -6.98103E-04  1.0E-07
  1.150E+01  1.00376E-02  6.30337E-16  2.25098E+01 -8.18584E-04  1.0E-07
  1.175E+01  1.04773E-02  5.95142E-16  2.12529E+01 -9.50338E-04  1.0E-07
  1.200E+01  1.09262E-02  5.61975E-16  2.00685E+01 -1.09394E-03  1.0E-07
  1.225E+01  1.13844E-02  5.30743E-16  1.89532E+01 -1.24993E-03  1.0E-07
  1.250E+01  1.18520E-02  5.01353E-16  1.79036E+01 -1.41886E-03  1.0E-07
  1.275E+01  1.23288E-02  4.73711E-16  1.69165E+01 -1.60123E-03  1.0E-07
  1.300E+01  1.28150E-02  4.47728E-16  1.59887E+01 -1.79750E-03  1.0E-07
  1.325E+01  1.33104E-02  4.23315E-16  1.51169E+01 -2.00809E-03  1.0E-07
  1.350E+01  1.38150E-02  4.00385E-16  1.42980E+01 -2.23339E-03  1.0E-07
  1.375E+01  1.43290E-02  3.78855E-16  1.35292E+01 -2.47372E-03  1.0E-07
  1.400E+01  1.48521E-02  3.58644E-16  1.28074E+01 -2.72934E-03  1.0E-07
  1.425E+01  1.53845E-02  3.39674E-16  1.21300E+01 -3.00044E-03  1.0E-07
  1.450E+01  1.59262E-02  3.21869E-16  1.14942E+01 -3.28716E-03  1.0E-07
  1.475E+01  1.64770E-02  3.05160E-16  1.08975E+01 -3.58955E-03  1.0E-07
  1.500E+01  1.70371E-02  2.89478E-16  1.03374E+01 -3.90758E-03  1.0E-07
