 #
 # Subroutine ELSEPA. Elastic scattering of electrons and positrons
 #                    by neutral atoms and positive ions
 #
 # Projectile: electron
 # Kinetic energy = 1.50000E+04 eV = 5.51240E+02 a.u.
 #
 # Element: Hg,  Z =  80,  atomic weight = 2.00590E+02 g/mol
 #
 # Nuclear model: Fermi distribution
 #                Average radius = 6.26355E-13 cm
 #                Skin thickness = 5.46000E-14 cm
 #
 # Number of electrons = 80
 #
 # Electron density: analytical TFD model
 #                   A1 =  1.19007D-01 ,   ALPHA1 = 2.60190D+01
 #                   A2 =  5.60270D-01 ,   ALPHA2 = 5.45128D+00
 #                   A3 =  3.20724D-01 ,   ALPHA3 = 1.55122D+00
 #                   Volume integral = 8.00000E+01
 #
 # Furness-McCarthy exchange potential
 #
 # Total elastic cross section = 7.87965E-17 cm**2 = 2.81387E+00 a0**2
 # 1st transport cross section = 2.63169E-18 cm**2 = 9.39795E-02 a0**2
 # 2nd transport cross section = 4.52412E-18 cm**2 = 1.61559E-01 a0**2
 #
 #
 # Differential cross section:                       MU=(1-COS(THETA))/2
 #
 #  THETA        MU          DCS          DCS        Sherman      error
 #  (deg)                 (cm**2/sr)   (a0**2/sr)    function
 #----------------------------------------------------------------------
  0.000E+00  0.00000E+00  1.06964E-14  3.81974E+02  0.00000E+00  1.0E-07
  1.000E-04  7.61557E-13  1.06964E-14  3.81974E+02  4.01399E-10  1.0E-07
  1.250E-04  1.18994E-12  1.06964E-14  3.81974E+02  5.01749E-10  1.0E-07
  1.500E-04  1.71346E-12  1.06964E-14  3.81974E+02  6.02099E-10  1.0E-07
  1.750E-04  2.33225E-12  1.06964E-14  3.81974E+02  7.02449E-10  1.0E-07
  2.000E-04  3.04617E-12  1.06964E-14  3.81974E+02  8.02799E-10  1.0E-07
  2.250E-04  3.85530E-12  1.06964E-14  3.81974E+02  9.03149E-10  1.0E-07
  2.500E-04  4.75964E-12  1.06964E-14  3.81974E+02  1.00350E-09  1.0E-07
  2.750E-04  5.75917E-12  1.06964E-14  3.81974E+02  1.10385E-09  1.0E-07
  3.000E-04  6.85391E-12  1.06964E-14  3.81974E+02  1.20420E-09  1.0E-07
  3.250E-04  8.04379E-12  1.06964E-14  3.81974E+02  1.30455E-09  1.0E-07
  3.500E-04  9.32893E-12  1.06964E-14  3.81974E+02  1.40490E-09  1.0E-07
  3.750E-04  1.07092E-11  1.06964E-14  3.81974E+02  1.50525E-09  1.0E-07
  4.000E-04  1.21847E-11  1.06964E-14  3.81974E+02  1.60560E-09  1.0E-07
  4.250E-04  1.37554E-11  1.06964E-14  3.81974E+02  1.70595E-09  1.0E-07
  4.500E-04  1.54213E-11  1.06964E-14  3.81974E+02  1.80630E-09  1.0E-07
  4.750E-04  1.71823E-11  1.06964E-14  3.81974E+02  1.90665E-09  1.0E-07
  5.000E-04  1.90386E-11  1.06964E-14  3.81974E+02  2.00700E-09  1.0E-07
  5.250E-04  2.09900E-11  1.06964E-14  3.81974E+02  2.10735E-09  1.0E-07
  5.500E-04  2.30367E-11  1.06964E-14  3.81974E+02  2.20770E-09  1.0E-07
  5.750E-04  2.51785E-11  1.06964E-14  3.81974E+02  2.30805E-09  1.0E-07
  6.000E-04  2.74156E-11  1.06964E-14  3.81974E+02  2.40840E-09  1.0E-07
  6.250E-04  2.97478E-11  1.06964E-14  3.81974E+02  2.50875E-09  1.0E-07
  6.500E-04  3.21752E-11  1.06964E-14  3.81974E+02  2.60910E-09  1.0E-07
  6.750E-04  3.46979E-11  1.06964E-14  3.81974E+02  2.70945E-09  1.0E-07
  7.000E-04  3.73157E-11  1.06964E-14  3.81974E+02  2.80980E-09  1.0E-07
  7.250E-04  4.00286E-11  1.06964E-14  3.81974E+02  2.91015E-09  1.0E-07
  7.500E-04  4.28368E-11  1.06964E-14  3.81974E+02  3.01050E-09  1.0E-07
  7.750E-04  4.57402E-11  1.06964E-14  3.81974E+02  3.11085E-09  1.0E-07
  8.000E-04  4.87388E-11  1.06964E-14  3.81974E+02  3.21120E-09  1.0E-07
  8.250E-04  5.18325E-11  1.06964E-14  3.81974E+02  3.31155E-09  1.0E-07
  8.500E-04  5.50215E-11  1.06964E-14  3.81974E+02  3.41190E-09  1.0E-07
  8.750E-04  5.83057E-11  1.06964E-14  3.81974E+02  3.51225E-09  1.0E-07
  9.000E-04  6.16850E-11  1.06964E-14  3.81974E+02  3.61260E-09  1.0E-07
  9.250E-04  6.51595E-11  1.06964E-14  3.81974E+02  3.71295E-09  1.0E-07
  9.500E-04  6.87293E-11  1.06964E-14  3.81974E+02  3.81330E-09  1.0E-07
  9.750E-04  7.23943E-11  1.06964E-14  3.81974E+02  3.91364E-09  1.0E-07
  1.000E-03  7.61544E-11  1.06964E-14  3.81974E+02  4.01399E-09  1.0E-07
  1.250E-03  1.18991E-10  1.06964E-14  3.81974E+02  5.01749E-09  1.0E-07
  1.500E-03  1.71347E-10  1.06963E-14  3.81974E+02  6.02099E-09  1.0E-07
  1.750E-03  2.33223E-10  1.06963E-14  3.81973E+02  7.02449E-09  1.0E-07
  2.000E-03  3.04617E-10  1.06963E-14  3.81973E+02  8.02800E-09  1.0E-07
  2.250E-03  3.85531E-10  1.06963E-14  3.81973E+02  9.03150E-09  1.0E-07
  2.500E-03  4.75965E-10  1.06963E-14  3.81973E+02  1.00350E-08  1.0E-07
  2.750E-03  5.75917E-10  1.06963E-14  3.81973E+02  1.10385E-08  1.0E-07
  3.000E-03  6.85389E-10  1.06963E-14  3.81973E+02  1.20420E-08  1.0E-07
  3.250E-03  8.04380E-10  1.06963E-14  3.81973E+02  1.30455E-08  1.0E-07
  3.500E-03  9.32891E-10  1.06963E-14  3.81972E+02  1.40490E-08  1.0E-07
  3.750E-03  1.07092E-09  1.06963E-14  3.81972E+02  1.50525E-08  1.0E-07
  4.000E-03  1.21847E-09  1.06963E-14  3.81972E+02  1.60560E-08  1.0E-07
  4.250E-03  1.37554E-09  1.06963E-14  3.81972E+02  1.70596E-08  1.0E-07
  4.500E-03  1.54213E-09  1.06963E-14  3.81971E+02  1.80631E-08  1.0E-07
  4.750E-03  1.71823E-09  1.06963E-14  3.81971E+02  1.90666E-08  1.0E-07
  5.000E-03  1.90386E-09  1.06963E-14  3.81971E+02  2.00701E-08  1.0E-07
  5.250E-03  2.09900E-09  1.06963E-14  3.81971E+02  2.10736E-08  1.0E-07
  5.500E-03  2.30367E-09  1.06963E-14  3.81970E+02  2.20771E-08  1.0E-07
  5.750E-03  2.51785E-09  1.06962E-14  3.81970E+02  2.30807E-08  1.0E-07
  6.000E-03  2.74156E-09  1.06962E-14  3.81970E+02  2.40842E-08  1.0E-07
  6.250E-03  2.97478E-09  1.06962E-14  3.81969E+02  2.50877E-08  1.0E-07
  6.500E-03  3.21752E-09  1.06962E-14  3.81969E+02  2.60912E-08  1.0E-07
  6.750E-03  3.46978E-09  1.06962E-14  3.81969E+02  2.70948E-08  1.0E-07
  7.000E-03  3.73156E-09  1.06962E-14  3.81968E+02  2.80983E-08  1.0E-07
  7.250E-03  4.00286E-09  1.06962E-14  3.81968E+02  2.91018E-08  1.0E-07
  7.500E-03  4.28368E-09  1.06962E-14  3.81967E+02  3.01054E-08  1.0E-07
  7.750E-03  4.57402E-09  1.06962E-14  3.81967E+02  3.11089E-08  1.0E-07
  8.000E-03  4.87388E-09  1.06961E-14  3.81966E+02  3.21125E-08  1.0E-07
  8.250E-03  5.18326E-09  1.06961E-14  3.81966E+02  3.31160E-08  1.0E-07
  8.500E-03  5.50215E-09  1.06961E-14  3.81965E+02  3.41196E-08  1.0E-07
  8.750E-03  5.83057E-09  1.06961E-14  3.81965E+02  3.51231E-08  1.0E-07
  9.000E-03  6.16850E-09  1.06961E-14  3.81964E+02  3.61267E-08  1.0E-07
  9.250E-03  6.51596E-09  1.06961E-14  3.81964E+02  3.71302E-08  1.0E-07
  9.500E-03  6.87293E-09  1.06961E-14  3.81963E+02  3.81338E-08  1.0E-07
  9.750E-03  7.23942E-09  1.06960E-14  3.81963E+02  3.91374E-08  1.0E-07
  1.000E-02  7.61544E-09  1.06960E-14  3.81962E+02  4.01409E-08  1.0E-07
  1.250E-02  1.18991E-08  1.06959E-14  3.81956E+02  5.01769E-08  1.0E-07
  1.500E-02  1.71347E-08  1.06956E-14  3.81948E+02  6.02132E-08  1.0E-07
  1.750E-02  2.33223E-08  1.06954E-14  3.81938E+02  7.02502E-08  1.0E-07
  2.000E-02  3.04617E-08  1.06951E-14  3.81928E+02  8.02878E-08  1.0E-07
  2.250E-02  3.85531E-08  1.06947E-14  3.81915E+02  9.03261E-08  1.0E-07
  2.500E-02  4.75965E-08  1.06943E-14  3.81902E+02  1.00365E-07  1.0E-07
  2.750E-02  5.75917E-08  1.06939E-14  3.81887E+02  1.10405E-07  1.0E-07
  3.000E-02  6.85389E-08  1.06935E-14  3.81870E+02  1.20447E-07  1.0E-07
  3.250E-02  8.04380E-08  1.06929E-14  3.81852E+02  1.30489E-07  1.0E-07
  3.500E-02  9.32891E-08  1.06924E-14  3.81833E+02  1.40532E-07  1.0E-07
  3.750E-02  1.07092E-07  1.06918E-14  3.81812E+02  1.50577E-07  1.0E-07
  4.000E-02  1.21847E-07  1.06912E-14  3.81789E+02  1.60623E-07  1.0E-07
  4.250E-02  1.37554E-07  1.06905E-14  3.81766E+02  1.70671E-07  1.0E-07
  4.500E-02  1.54213E-07  1.06898E-14  3.81740E+02  1.80720E-07  1.0E-07
  4.750E-02  1.71823E-07  1.06891E-14  3.81714E+02  1.90771E-07  1.0E-07
  5.000E-02  1.90386E-07  1.06883E-14  3.81686E+02  2.00823E-07  1.0E-07
  5.250E-02  2.09900E-07  1.06875E-14  3.81656E+02  2.10878E-07  1.0E-07
  5.500E-02  2.30367E-07  1.06866E-14  3.81625E+02  2.20934E-07  1.0E-07
  5.750E-02  2.51785E-07  1.06857E-14  3.81593E+02  2.30993E-07  1.0E-07
  6.000E-02  2.74156E-07  1.06847E-14  3.81559E+02  2.41053E-07  1.0E-07
  6.250E-02  2.97478E-07  1.06838E-14  3.81524E+02  2.51116E-07  1.0E-07
  6.500E-02  3.21752E-07  1.06827E-14  3.81487E+02  2.61181E-07  1.0E-07
  6.750E-02  3.46978E-07  1.06817E-14  3.81449E+02  2.71249E-07  1.0E-07
  7.000E-02  3.73156E-07  1.06806E-14  3.81409E+02  2.81319E-07  1.0E-07
  7.250E-02  4.00286E-07  1.06794E-14  3.81368E+02  2.91392E-07  1.0E-07
  7.500E-02  4.28368E-07  1.06782E-14  3.81326E+02  3.01467E-07  1.0E-07
  7.750E-02  4.57402E-07  1.06770E-14  3.81282E+02  3.11545E-07  1.0E-07
  8.000E-02  4.87388E-07  1.06757E-14  3.81237E+02  3.21626E-07  1.0E-07
  8.250E-02  5.18325E-07  1.06744E-14  3.81190E+02  3.31710E-07  1.0E-07
  8.500E-02  5.50215E-07  1.06731E-14  3.81142E+02  3.41797E-07  1.0E-07
  8.750E-02  5.83057E-07  1.06717E-14  3.81092E+02  3.51888E-07  1.0E-07
  9.000E-02  6.16850E-07  1.06702E-14  3.81041E+02  3.61981E-07  1.0E-07
  9.250E-02  6.51596E-07  1.06688E-14  3.80989E+02  3.72078E-07  1.0E-07
  9.500E-02  6.87293E-07  1.06673E-14  3.80935E+02  3.82178E-07  1.0E-07
  9.750E-02  7.23942E-07  1.06657E-14  3.80880E+02  3.92282E-07  1.0E-07
  1.000E-01  7.61543E-07  1.06641E-14  3.80823E+02  4.02389E-07  1.0E-07
  1.250E-01  1.18991E-06  1.06461E-14  3.80178E+02  5.03683E-07  1.0E-07
  1.500E-01  1.71347E-06  1.06241E-14  3.79392E+02  6.05443E-07  1.0E-07
  1.750E-01  2.33223E-06  1.05981E-14  3.78466E+02  7.07761E-07  1.0E-07
  2.000E-01  3.04617E-06  1.05683E-14  3.77402E+02  8.10732E-07  1.0E-07
  2.250E-01  3.85531E-06  1.05347E-14  3.76201E+02  9.14450E-07  1.0E-07
  2.500E-01  4.75964E-06  1.04973E-14  3.74866E+02  1.01901E-06  1.0E-07
  2.750E-01  5.75916E-06  1.04562E-14  3.73398E+02  1.12451E-06  1.0E-07
  3.000E-01  6.85388E-06  1.04115E-14  3.71800E+02  1.23105E-06  1.0E-07
  3.250E-01  8.04378E-06  1.03632E-14  3.70075E+02  1.33871E-06  1.0E-07
  3.500E-01  9.32888E-06  1.03113E-14  3.68225E+02  1.44761E-06  1.0E-07
  3.750E-01  1.07092E-05  1.02561E-14  3.66253E+02  1.55783E-06  1.0E-07
  4.000E-01  1.21846E-05  1.01976E-14  3.64162E+02  1.66948E-06  1.0E-07
  4.250E-01  1.37553E-05  1.01358E-14  3.61956E+02  1.78265E-06  1.0E-07
  4.500E-01  1.54212E-05  1.00709E-14  3.59637E+02  1.89746E-06  1.0E-07
  4.750E-01  1.71822E-05  1.00029E-14  3.57210E+02  2.01400E-06  1.0E-07
  5.000E-01  1.90385E-05  9.93197E-15  3.54677E+02  2.13237E-06  1.0E-07
  5.250E-01  2.09899E-05  9.85821E-15  3.52043E+02  2.25268E-06  1.0E-07
  5.500E-01  2.30365E-05  9.78173E-15  3.49312E+02  2.37503E-06  1.0E-07
  5.750E-01  2.51783E-05  9.70262E-15  3.46487E+02  2.49954E-06  1.0E-07
  6.000E-01  2.74153E-05  9.62100E-15  3.43572E+02  2.62631E-06  1.0E-07
  6.250E-01  2.97475E-05  9.53699E-15  3.40572E+02  2.75544E-06  1.0E-07
  6.500E-01  3.21749E-05  9.45069E-15  3.37490E+02  2.88706E-06  1.0E-07
  6.750E-01  3.46974E-05  9.36223E-15  3.34331E+02  3.02128E-06  1.0E-07
  7.000E-01  3.73152E-05  9.27171E-15  3.31099E+02  3.15820E-06  1.0E-07
  7.250E-01  4.00281E-05  9.17927E-15  3.27798E+02  3.29794E-06  1.0E-07
  7.500E-01  4.28362E-05  9.08501E-15  3.24432E+02  3.44063E-06  1.0E-07
  7.750E-01  4.57395E-05  8.98906E-15  3.21005E+02  3.58638E-06  1.0E-07
  8.000E-01  4.87380E-05  8.89152E-15  3.17522E+02  3.73531E-06  1.0E-07
  8.250E-01  5.18317E-05  8.79253E-15  3.13987E+02  3.88754E-06  1.0E-07
  8.500E-01  5.50205E-05  8.69219E-15  3.10404E+02  4.04320E-06  1.0E-07
  8.750E-01  5.83045E-05  8.59061E-15  3.06776E+02  4.20242E-06  1.0E-07
  9.000E-01  6.16838E-05  8.48792E-15  3.03109E+02  4.36532E-06  1.0E-07
  9.250E-01  6.51582E-05  8.38422E-15  2.99406E+02  4.53203E-06  1.0E-07
  9.500E-01  6.87277E-05  8.27962E-15  2.95671E+02  4.70268E-06  1.0E-07
  9.750E-01  7.23925E-05  8.17424E-15  2.91907E+02  4.87742E-06  1.0E-07
  1.000E+00  7.61524E-05  8.06818E-15  2.88120E+02  5.05637E-06  1.0E-07
  1.100E+00  9.21439E-05  7.63914E-15  2.72799E+02  5.81710E-06  1.0E-07
  1.200E+00  1.09658E-04  7.20704E-15  2.57368E+02  6.65670E-06  1.0E-07
  1.300E+00  1.28695E-04  6.77739E-15  2.42025E+02  7.58490E-06  1.0E-07
  1.400E+00  1.49255E-04  6.35492E-15  2.26938E+02  8.61203E-06  1.0E-07
  1.500E+00  1.71338E-04  5.94352E-15  2.12247E+02  9.74897E-06  1.0E-07
  1.600E+00  1.94942E-04  5.54633E-15  1.98063E+02  1.10073E-05  1.0E-07
  1.700E+00  2.20070E-04  5.16572E-15  1.84471E+02  1.23990E-05  1.0E-07
  1.800E+00  2.46720E-04  4.80339E-15  1.71532E+02  1.39368E-05  1.0E-07
  1.900E+00  2.74892E-04  4.46046E-15  1.59286E+02  1.56339E-05  1.0E-07
  2.000E+00  3.04586E-04  4.13753E-15  1.47754E+02  1.75038E-05  1.0E-07
  2.100E+00  3.35803E-04  3.83475E-15  1.36941E+02  1.95607E-05  1.0E-07
  2.200E+00  3.68542E-04  3.55196E-15  1.26843E+02  2.18190E-05  1.0E-07
  2.300E+00  4.02802E-04  3.28871E-15  1.17442E+02  2.42936E-05  1.0E-07
  2.400E+00  4.38585E-04  3.04432E-15  1.08715E+02  2.69995E-05  1.0E-07
  2.500E+00  4.75889E-04  2.81799E-15  1.00632E+02  2.99518E-05  1.0E-07
  2.600E+00  5.14715E-04  2.60881E-15  9.31623E+01  3.31658E-05  1.0E-07
  2.700E+00  5.55063E-04  2.41579E-15  8.62694E+01  3.66568E-05  1.0E-07
  2.800E+00  5.96931E-04  2.23792E-15  7.99175E+01  4.04399E-05  1.0E-07
  2.900E+00  6.40321E-04  2.07418E-15  7.40704E+01  4.45300E-05  1.0E-07
  3.000E+00  6.85233E-04  1.92357E-15  6.86920E+01  4.89418E-05  1.0E-07
  3.100E+00  7.31665E-04  1.78512E-15  6.37478E+01  5.36896E-05  1.0E-07
  3.200E+00  7.79618E-04  1.65788E-15  5.92041E+01  5.87872E-05  1.0E-07
  3.300E+00  8.29092E-04  1.54098E-15  5.50294E+01  6.42481E-05  1.0E-07
  3.400E+00  8.80086E-04  1.43357E-15  5.11935E+01  7.00849E-05  1.0E-07
  3.500E+00  9.32601E-04  1.33486E-15  4.76687E+01  7.63099E-05  1.0E-07
  3.600E+00  9.86636E-04  1.24413E-15  4.44286E+01  8.29345E-05  1.0E-07
  3.700E+00  1.04219E-03  1.16070E-15  4.14492E+01  8.99693E-05  1.0E-07
  3.800E+00  1.09927E-03  1.08394E-15  3.87081E+01  9.74245E-05  1.0E-07
  3.900E+00  1.15786E-03  1.01328E-15  3.61848E+01  1.05309E-04  1.0E-07
  4.000E+00  1.21797E-03  9.48190E-16  3.38605E+01  1.13632E-04  1.0E-07
  4.100E+00  1.27961E-03  8.88190E-16  3.17179E+01  1.22400E-04  1.0E-07
  4.200E+00  1.34276E-03  8.32837E-16  2.97411E+01  1.31620E-04  1.0E-07
  4.300E+00  1.40743E-03  7.81727E-16  2.79160E+01  1.41298E-04  1.0E-07
  4.400E+00  1.47362E-03  7.34495E-16  2.62293E+01  1.51439E-04  1.0E-07
  4.500E+00  1.54133E-03  6.90806E-16  2.46691E+01  1.62048E-04  1.0E-07
  4.600E+00  1.61056E-03  6.50356E-16  2.32246E+01  1.73127E-04  1.0E-07
  4.700E+00  1.68131E-03  6.12869E-16  2.18859E+01  1.84681E-04  1.0E-07
  4.800E+00  1.75357E-03  5.78094E-16  2.06441E+01  1.96709E-04  1.0E-07
  4.900E+00  1.82735E-03  5.45803E-16  1.94910E+01  2.09214E-04  1.0E-07
  5.000E+00  1.90265E-03  5.15788E-16  1.84191E+01  2.22196E-04  1.0E-07
  5.100E+00  1.97947E-03  4.87862E-16  1.74219E+01  2.35654E-04  1.0E-07
  5.200E+00  2.05780E-03  4.61853E-16  1.64931E+01  2.49588E-04  1.0E-07
  5.300E+00  2.13765E-03  4.37606E-16  1.56272E+01  2.63995E-04  1.0E-07
  5.400E+00  2.21902E-03  4.14979E-16  1.48192E+01  2.78872E-04  1.0E-07
  5.500E+00  2.30190E-03  3.93843E-16  1.40644E+01  2.94217E-04  1.0E-07
  5.600E+00  2.38630E-03  3.74080E-16  1.33586E+01  3.10025E-04  1.0E-07
  5.700E+00  2.47222E-03  3.55585E-16  1.26982E+01  3.26291E-04  1.0E-07
  5.800E+00  2.55965E-03  3.38260E-16  1.20795E+01  3.43011E-04  1.0E-07
  5.900E+00  2.64859E-03  3.22015E-16  1.14994E+01  3.60177E-04  1.0E-07
  6.000E+00  2.73905E-03  3.06770E-16  1.09549E+01  3.77783E-04  1.0E-07
  6.100E+00  2.83103E-03  2.92450E-16  1.04436E+01  3.95821E-04  1.0E-07
  6.200E+00  2.92452E-03  2.78988E-16  9.96286E+00  4.14282E-04  1.0E-07
  6.300E+00  3.01952E-03  2.66322E-16  9.51053E+00  4.33159E-04  1.0E-07
  6.400E+00  3.11604E-03  2.54395E-16  9.08459E+00  4.52440E-04  1.0E-07
  6.500E+00  3.21407E-03  2.43154E-16  8.68317E+00  4.72116E-04  1.0E-07
  6.600E+00  3.31362E-03  2.32551E-16  8.30456E+00  4.92175E-04  1.0E-07
  6.700E+00  3.41468E-03  2.22544E-16  7.94719E+00  5.12604E-04  1.0E-07
  6.800E+00  3.51725E-03  2.13091E-16  7.60961E+00  5.33393E-04  1.0E-07
  6.900E+00  3.62133E-03  2.04155E-16  7.29049E+00  5.54526E-04  1.0E-07
  7.000E+00  3.72692E-03  1.95701E-16  6.98862E+00  5.75991E-04  1.0E-07
  7.100E+00  3.83403E-03  1.87699E-16  6.70286E+00  5.97771E-04  1.0E-07
  7.200E+00  3.94265E-03  1.80119E-16  6.43216E+00  6.19852E-04  1.0E-07
  7.300E+00  4.05278E-03  1.72933E-16  6.17557E+00  6.42217E-04  1.0E-07
  7.400E+00  4.16442E-03  1.66118E-16  5.93219E+00  6.64849E-04  1.0E-07
  7.500E+00  4.27757E-03  1.59650E-16  5.70120E+00  6.87730E-04  1.0E-07
  7.600E+00  4.39223E-03  1.53507E-16  5.48183E+00  7.10843E-04  1.0E-07
  7.700E+00  4.50840E-03  1.47670E-16  5.27338E+00  7.34167E-04  1.0E-07
  7.800E+00  4.62608E-03  1.42119E-16  5.07518E+00  7.57683E-04  1.0E-07
  7.900E+00  4.74527E-03  1.36839E-16  4.88662E+00  7.81372E-04  1.0E-07
  8.000E+00  4.86597E-03  1.31814E-16  4.70715E+00  8.05210E-04  1.0E-07
  8.100E+00  4.98817E-03  1.27027E-16  4.53622E+00  8.29178E-04  1.0E-07
  8.200E+00  5.11188E-03  1.22466E-16  4.37334E+00  8.53251E-04  1.0E-07
  8.300E+00  5.23711E-03  1.18118E-16  4.21806E+00  8.77409E-04  1.0E-07
  8.400E+00  5.36383E-03  1.13970E-16  4.06995E+00  9.01626E-04  1.0E-07
  8.500E+00  5.49207E-03  1.10012E-16  3.92860E+00  9.25880E-04  1.0E-07
  8.600E+00  5.62181E-03  1.06233E-16  3.79364E+00  9.50145E-04  1.0E-07
  8.700E+00  5.75306E-03  1.02623E-16  3.66472E+00  9.74395E-04  1.0E-07
  8.800E+00  5.88581E-03  9.91725E-17  3.54152E+00  9.98607E-04  1.0E-07
  8.900E+00  6.02007E-03  9.58739E-17  3.42372E+00  1.02275E-03  1.0E-07
  9.000E+00  6.15583E-03  9.27186E-17  3.31104E+00  1.04681E-03  1.0E-07
  9.100E+00  6.29310E-03  8.96992E-17  3.20322E+00  1.07074E-03  1.0E-07
  9.200E+00  6.43187E-03  8.68085E-17  3.09999E+00  1.09453E-03  1.0E-07
  9.300E+00  6.57214E-03  8.40399E-17  3.00112E+00  1.11815E-03  1.0E-07
  9.400E+00  6.71392E-03  8.13871E-17  2.90639E+00  1.14156E-03  1.0E-07
  9.500E+00  6.85720E-03  7.88443E-17  2.81558E+00  1.16474E-03  1.0E-07
  9.600E+00  7.00198E-03  7.64059E-17  2.72851E+00  1.18766E-03  1.0E-07
  9.700E+00  7.14827E-03  7.40668E-17  2.64497E+00  1.21030E-03  1.0E-07
  9.800E+00  7.29605E-03  7.18220E-17  2.56481E+00  1.23262E-03  1.0E-07
  9.900E+00  7.44534E-03  6.96669E-17  2.48785E+00  1.25459E-03  1.0E-07
  1.000E+01  7.59612E-03  6.75972E-17  2.41394E+00  1.27619E-03  1.0E-07
  1.025E+01  7.97965E-03  6.27699E-17  2.24155E+00  1.32835E-03  1.0E-07
  1.050E+01  8.37255E-03  5.83928E-17  2.08524E+00  1.37752E-03  1.0E-07
  1.075E+01  8.77480E-03  5.44153E-17  1.94321E+00  1.42324E-03  1.0E-07
  1.100E+01  9.18641E-03  5.07936E-17  1.81387E+00  1.46504E-03  1.0E-07
  1.125E+01  9.60736E-03  4.74890E-17  1.69586E+00  1.50247E-03  1.0E-07
  1.150E+01  1.00376E-02  4.44680E-17  1.58798E+00  1.53508E-03  1.0E-07
  1.175E+01  1.04773E-02  4.17011E-17  1.48917E+00  1.56243E-03  1.0E-07
  1.200E+01  1.09262E-02  3.91622E-17  1.39851E+00  1.58410E-03  1.0E-07
  1.225E+01  1.13844E-02  3.68284E-17  1.31516E+00  1.59966E-03  1.0E-07
  1.250E+01  1.18520E-02  3.46794E-17  1.23843E+00  1.60873E-03  1.0E-07
  1.275E+01  1.23288E-02  3.26974E-17  1.16765E+00  1.61091E-03  1.0E-07
  1.300E+01  1.28150E-02  3.08665E-17  1.10226E+00  1.60585E-03  1.0E-07
  1.325E+01  1.33104E-02  2.91723E-17  1.04176E+00  1.59320E-03  1.0E-07
  1.350E+01  1.38150E-02  2.76024E-17  9.85701E-01  1.57264E-03  1.0E-07
  1.375E+01  1.43290E-02  2.61455E-17  9.33673E-01  1.54387E-03  1.0E-07
  1.400E+01  1.48521E-02  2.47915E-17  8.85322E-01  1.50662E-03  1.0E-07
  1.425E+01  1.53845E-02  2.35314E-17  8.40323E-01  1.46062E-03  1.0E-07
  1.450E+01  1.59262E-02  2.23572E-17  7.98389E-01  1.40565E-03  1.0E-07
  1.475E+01  1.64770E-02  2.12615E-17  7.59260E-01  1.34150E-03  1.0E-07
  1.500E+01  1.70371E-02  2.02377E-17  7.22702E-01  1.26799E-03  1.0E-07
