 #
 # Subroutine ELSEPA. Elastic scattering of electrons and positrons
 #                    by neutral atoms and positive ions
 #
 # Projectile: electron
 # Kinetic energy = 1.20000E+01 eV = 4.40992E-01 a.u.
 #
 #  ***  WARNING: Energy is too low.
 #                The reliability of the results is questionable.
 #
 # Element: Hg,  Z =  80,  atomic weight = 2.00590E+02 g/mol
 #
 # Nuclear model: Fermi distribution
 #                Average radius = 6.26355E-13 cm
 #                Skin thickness = 5.46000E-14 cm
 #
 # Number of electrons = 80
 #
 # Electron density: Read from file z_080.den   
 #                   Number of data points =  763
 #                   Volume integral = 8.00000E+01
 #
 # Total elastic cross section = 1.70073E-15 cm**2 = 6.07340E+01 a0**2
 # 1st transport cross section = 1.64477E-15 cm**2 = 5.87359E+01 a0**2
 # 2nd transport cross section = 1.25133E-15 cm**2 = 4.46857E+01 a0**2
 #
 #
 # Differential cross section:                       MU=(1-COS(THETA))/2
 #
 #  THETA        MU          DCS          DCS        Sherman      error
 #  (deg)                 (cm**2/sr)   (a0**2/sr)    function
 #----------------------------------------------------------------------
  0.000E+00  0.00000E+00  6.82326E-16  2.43663E+01  0.00000E+00  1.0E-07
  1.000E-04  7.61557E-13  6.82326E-16  2.43663E+01  1.62542E-07  1.0E-07
  1.250E-04  1.18994E-12  6.82326E-16  2.43663E+01  2.03177E-07  1.0E-07
  1.500E-04  1.71346E-12  6.82326E-16  2.43663E+01  2.43812E-07  1.0E-07
  1.750E-04  2.33225E-12  6.82326E-16  2.43663E+01  2.84448E-07  1.0E-07
  2.000E-04  3.04617E-12  6.82326E-16  2.43663E+01  3.25083E-07  1.0E-07
  2.250E-04  3.85530E-12  6.82326E-16  2.43663E+01  3.65719E-07  1.0E-07
  2.500E-04  4.75964E-12  6.82326E-16  2.43663E+01  4.06354E-07  1.0E-07
  2.750E-04  5.75917E-12  6.82326E-16  2.43663E+01  4.46989E-07  1.0E-07
  3.000E-04  6.85391E-12  6.82326E-16  2.43663E+01  4.87625E-07  1.0E-07
  3.250E-04  8.04379E-12  6.82326E-16  2.43663E+01  5.28260E-07  1.0E-07
  3.500E-04  9.32893E-12  6.82326E-16  2.43663E+01  5.68895E-07  1.0E-07
  3.750E-04  1.07092E-11  6.82326E-16  2.43663E+01  6.09531E-07  1.0E-07
  4.000E-04  1.21847E-11  6.82326E-16  2.43663E+01  6.50166E-07  1.0E-07
  4.250E-04  1.37554E-11  6.82326E-16  2.43663E+01  6.90802E-07  1.0E-07
  4.500E-04  1.54213E-11  6.82326E-16  2.43663E+01  7.31437E-07  1.0E-07
  4.750E-04  1.71823E-11  6.82326E-16  2.43663E+01  7.72072E-07  1.0E-07
  5.000E-04  1.90386E-11  6.82326E-16  2.43663E+01  8.12708E-07  1.0E-07
  5.250E-04  2.09900E-11  6.82326E-16  2.43663E+01  8.53343E-07  1.0E-07
  5.500E-04  2.30367E-11  6.82326E-16  2.43663E+01  8.93979E-07  1.0E-07
  5.750E-04  2.51785E-11  6.82326E-16  2.43663E+01  9.34614E-07  1.0E-07
  6.000E-04  2.74156E-11  6.82326E-16  2.43663E+01  9.75249E-07  1.0E-07
  6.250E-04  2.97478E-11  6.82326E-16  2.43663E+01  1.01588E-06  1.0E-07
  6.500E-04  3.21752E-11  6.82326E-16  2.43663E+01  1.05652E-06  1.0E-07
  6.750E-04  3.46979E-11  6.82326E-16  2.43663E+01  1.09716E-06  1.0E-07
  7.000E-04  3.73157E-11  6.82326E-16  2.43663E+01  1.13779E-06  1.0E-07
  7.250E-04  4.00286E-11  6.82326E-16  2.43663E+01  1.17843E-06  1.0E-07
  7.500E-04  4.28368E-11  6.82326E-16  2.43663E+01  1.21906E-06  1.0E-07
  7.750E-04  4.57402E-11  6.82326E-16  2.43663E+01  1.25970E-06  1.0E-07
  8.000E-04  4.87388E-11  6.82326E-16  2.43663E+01  1.30033E-06  1.0E-07
  8.250E-04  5.18325E-11  6.82326E-16  2.43663E+01  1.34097E-06  1.0E-07
  8.500E-04  5.50215E-11  6.82326E-16  2.43663E+01  1.38160E-06  1.0E-07
  8.750E-04  5.83057E-11  6.82326E-16  2.43663E+01  1.42224E-06  1.0E-07
  9.000E-04  6.16850E-11  6.82326E-16  2.43663E+01  1.46287E-06  1.0E-07
  9.250E-04  6.51595E-11  6.82326E-16  2.43663E+01  1.50351E-06  1.0E-07
  9.500E-04  6.87293E-11  6.82326E-16  2.43663E+01  1.54414E-06  1.0E-07
  9.750E-04  7.23943E-11  6.82326E-16  2.43663E+01  1.58478E-06  1.0E-07
  1.000E-03  7.61544E-11  6.82326E-16  2.43663E+01  1.62542E-06  1.0E-07
  1.250E-03  1.18991E-10  6.82326E-16  2.43663E+01  2.03177E-06  1.0E-07
  1.500E-03  1.71347E-10  6.82326E-16  2.43663E+01  2.43812E-06  1.0E-07
  1.750E-03  2.33223E-10  6.82326E-16  2.43663E+01  2.84448E-06  1.0E-07
  2.000E-03  3.04617E-10  6.82326E-16  2.43663E+01  3.25083E-06  1.0E-07
  2.250E-03  3.85531E-10  6.82326E-16  2.43663E+01  3.65719E-06  1.0E-07
  2.500E-03  4.75965E-10  6.82326E-16  2.43663E+01  4.06354E-06  1.0E-07
  2.750E-03  5.75917E-10  6.82326E-16  2.43663E+01  4.46989E-06  1.0E-07
  3.000E-03  6.85389E-10  6.82326E-16  2.43663E+01  4.87625E-06  1.0E-07
  3.250E-03  8.04380E-10  6.82326E-16  2.43663E+01  5.28260E-06  1.0E-07
  3.500E-03  9.32891E-10  6.82326E-16  2.43663E+01  5.68895E-06  1.0E-07
  3.750E-03  1.07092E-09  6.82326E-16  2.43663E+01  6.09531E-06  1.0E-07
  4.000E-03  1.21847E-09  6.82326E-16  2.43663E+01  6.50166E-06  1.0E-07
  4.250E-03  1.37554E-09  6.82326E-16  2.43663E+01  6.90802E-06  1.0E-07
  4.500E-03  1.54213E-09  6.82326E-16  2.43663E+01  7.31437E-06  1.0E-07
  4.750E-03  1.71823E-09  6.82326E-16  2.43663E+01  7.72072E-06  1.0E-07
  5.000E-03  1.90386E-09  6.82326E-16  2.43663E+01  8.12708E-06  1.0E-07
  5.250E-03  2.09900E-09  6.82326E-16  2.43663E+01  8.53343E-06  1.0E-07
  5.500E-03  2.30367E-09  6.82326E-16  2.43663E+01  8.93979E-06  1.0E-07
  5.750E-03  2.51785E-09  6.82326E-16  2.43663E+01  9.34614E-06  1.0E-07
  6.000E-03  2.74156E-09  6.82326E-16  2.43663E+01  9.75249E-06  1.0E-07
  6.250E-03  2.97478E-09  6.82326E-16  2.43663E+01  1.01588E-05  1.0E-07
  6.500E-03  3.21752E-09  6.82326E-16  2.43663E+01  1.05652E-05  1.0E-07
  6.750E-03  3.46978E-09  6.82326E-16  2.43663E+01  1.09716E-05  1.0E-07
  7.000E-03  3.73156E-09  6.82326E-16  2.43663E+01  1.13779E-05  1.0E-07
  7.250E-03  4.00286E-09  6.82326E-16  2.43663E+01  1.17843E-05  1.0E-07
  7.500E-03  4.28368E-09  6.82326E-16  2.43663E+01  1.21906E-05  1.0E-07
  7.750E-03  4.57402E-09  6.82326E-16  2.43663E+01  1.25970E-05  1.0E-07
  8.000E-03  4.87388E-09  6.82326E-16  2.43663E+01  1.30033E-05  1.0E-07
  8.250E-03  5.18326E-09  6.82326E-16  2.43663E+01  1.34097E-05  1.0E-07
  8.500E-03  5.50215E-09  6.82326E-16  2.43663E+01  1.38160E-05  1.0E-07
  8.750E-03  5.83057E-09  6.82326E-16  2.43663E+01  1.42224E-05  1.0E-07
  9.000E-03  6.16850E-09  6.82326E-16  2.43663E+01  1.46287E-05  1.0E-07
  9.250E-03  6.51596E-09  6.82326E-16  2.43663E+01  1.50351E-05  1.0E-07
  9.500E-03  6.87293E-09  6.82326E-16  2.43663E+01  1.54414E-05  1.0E-07
  9.750E-03  7.23942E-09  6.82326E-16  2.43663E+01  1.58478E-05  1.0E-07
  1.000E-02  7.61544E-09  6.82326E-16  2.43663E+01  1.62542E-05  1.0E-07
  1.250E-02  1.18991E-08  6.82326E-16  2.43663E+01  2.03177E-05  1.0E-07
  1.500E-02  1.71347E-08  6.82326E-16  2.43663E+01  2.43812E-05  1.0E-07
  1.750E-02  2.33223E-08  6.82326E-16  2.43663E+01  2.84448E-05  1.0E-07
  2.000E-02  3.04617E-08  6.82326E-16  2.43663E+01  3.25083E-05  1.0E-07
  2.250E-02  3.85531E-08  6.82326E-16  2.43663E+01  3.65718E-05  1.0E-07
  2.500E-02  4.75965E-08  6.82326E-16  2.43663E+01  4.06354E-05  1.0E-07
  2.750E-02  5.75917E-08  6.82326E-16  2.43663E+01  4.46989E-05  1.0E-07
  3.000E-02  6.85389E-08  6.82326E-16  2.43663E+01  4.87625E-05  1.0E-07
  3.250E-02  8.04380E-08  6.82326E-16  2.43663E+01  5.28260E-05  1.0E-07
  3.500E-02  9.32891E-08  6.82326E-16  2.43663E+01  5.68895E-05  1.0E-07
  3.750E-02  1.07092E-07  6.82326E-16  2.43663E+01  6.09531E-05  1.0E-07
  4.000E-02  1.21847E-07  6.82325E-16  2.43663E+01  6.50166E-05  1.0E-07
  4.250E-02  1.37554E-07  6.82325E-16  2.43663E+01  6.90802E-05  1.0E-07
  4.500E-02  1.54213E-07  6.82325E-16  2.43663E+01  7.31437E-05  1.0E-07
  4.750E-02  1.71823E-07  6.82325E-16  2.43663E+01  7.72072E-05  1.0E-07
  5.000E-02  1.90386E-07  6.82325E-16  2.43663E+01  8.12708E-05  1.0E-07
  5.250E-02  2.09900E-07  6.82325E-16  2.43663E+01  8.53343E-05  1.0E-07
  5.500E-02  2.30367E-07  6.82324E-16  2.43662E+01  8.93978E-05  1.0E-07
  5.750E-02  2.51785E-07  6.82324E-16  2.43662E+01  9.34614E-05  1.0E-07
  6.000E-02  2.74156E-07  6.82324E-16  2.43662E+01  9.75249E-05  1.0E-07
  6.250E-02  2.97478E-07  6.82324E-16  2.43662E+01  1.01588E-04  1.0E-07
  6.500E-02  3.21752E-07  6.82324E-16  2.43662E+01  1.05652E-04  1.0E-07
  6.750E-02  3.46978E-07  6.82323E-16  2.43662E+01  1.09716E-04  1.0E-07
  7.000E-02  3.73156E-07  6.82323E-16  2.43662E+01  1.13779E-04  1.0E-07
  7.250E-02  4.00286E-07  6.82323E-16  2.43662E+01  1.17843E-04  1.0E-07
  7.500E-02  4.28368E-07  6.82323E-16  2.43662E+01  1.21906E-04  1.0E-07
  7.750E-02  4.57402E-07  6.82322E-16  2.43662E+01  1.25970E-04  1.0E-07
  8.000E-02  4.87388E-07  6.82322E-16  2.43662E+01  1.30033E-04  1.0E-07
  8.250E-02  5.18325E-07  6.82322E-16  2.43662E+01  1.34097E-04  1.0E-07
  8.500E-02  5.50215E-07  6.82322E-16  2.43661E+01  1.38160E-04  1.0E-07
  8.750E-02  5.83057E-07  6.82321E-16  2.43661E+01  1.42224E-04  1.0E-07
  9.000E-02  6.16850E-07  6.82321E-16  2.43661E+01  1.46287E-04  1.0E-07
  9.250E-02  6.51596E-07  6.82321E-16  2.43661E+01  1.50351E-04  1.0E-07
  9.500E-02  6.87293E-07  6.82320E-16  2.43661E+01  1.54414E-04  1.0E-07
  9.750E-02  7.23942E-07  6.82320E-16  2.43661E+01  1.58478E-04  1.0E-07
  1.000E-01  7.61543E-07  6.82320E-16  2.43661E+01  1.62541E-04  1.0E-07
  1.250E-01  1.18991E-06  6.82316E-16  2.43659E+01  2.03177E-04  1.0E-07
  1.500E-01  1.71347E-06  6.82311E-16  2.43658E+01  2.43812E-04  1.0E-07
  1.750E-01  2.33223E-06  6.82306E-16  2.43656E+01  2.84447E-04  1.0E-07
  2.000E-01  3.04617E-06  6.82299E-16  2.43654E+01  3.25082E-04  1.0E-07
  2.250E-01  3.85531E-06  6.82292E-16  2.43651E+01  3.65717E-04  1.0E-07
  2.500E-01  4.75964E-06  6.82284E-16  2.43648E+01  4.06352E-04  1.0E-07
  2.750E-01  5.75916E-06  6.82275E-16  2.43645E+01  4.46987E-04  1.0E-07
  3.000E-01  6.85388E-06  6.82266E-16  2.43641E+01  4.87622E-04  1.0E-07
  3.250E-01  8.04378E-06  6.82255E-16  2.43638E+01  5.28257E-04  1.0E-07
  3.500E-01  9.32888E-06  6.82244E-16  2.43634E+01  5.68891E-04  1.0E-07
  3.750E-01  1.07092E-05  6.82231E-16  2.43629E+01  6.09526E-04  1.0E-07
  4.000E-01  1.21846E-05  6.82218E-16  2.43625E+01  6.50160E-04  1.0E-07
  4.250E-01  1.37553E-05  6.82204E-16  2.43620E+01  6.90794E-04  1.0E-07
  4.500E-01  1.54212E-05  6.82189E-16  2.43614E+01  7.31428E-04  1.0E-07
  4.750E-01  1.71822E-05  6.82174E-16  2.43609E+01  7.72062E-04  1.0E-07
  5.000E-01  1.90385E-05  6.82157E-16  2.43603E+01  8.12695E-04  1.0E-07
  5.250E-01  2.09899E-05  6.82140E-16  2.43597E+01  8.53329E-04  1.0E-07
  5.500E-01  2.30365E-05  6.82122E-16  2.43590E+01  8.93962E-04  1.0E-07
  5.750E-01  2.51783E-05  6.82103E-16  2.43583E+01  9.34595E-04  1.0E-07
  6.000E-01  2.74153E-05  6.82083E-16  2.43576E+01  9.75228E-04  1.0E-07
  6.250E-01  2.97475E-05  6.82062E-16  2.43569E+01  1.01586E-03  1.0E-07
  6.500E-01  3.21749E-05  6.82040E-16  2.43561E+01  1.05649E-03  1.0E-07
  6.750E-01  3.46974E-05  6.82018E-16  2.43553E+01  1.09712E-03  1.0E-07
  7.000E-01  3.73152E-05  6.81995E-16  2.43545E+01  1.13776E-03  1.0E-07
  7.250E-01  4.00281E-05  6.81971E-16  2.43536E+01  1.17839E-03  1.0E-07
  7.500E-01  4.28362E-05  6.81946E-16  2.43527E+01  1.21902E-03  1.0E-07
  7.750E-01  4.57395E-05  6.81920E-16  2.43518E+01  1.25965E-03  1.0E-07
  8.000E-01  4.87380E-05  6.81893E-16  2.43509E+01  1.30028E-03  1.0E-07
  8.250E-01  5.18317E-05  6.81866E-16  2.43499E+01  1.34091E-03  1.0E-07
  8.500E-01  5.50205E-05  6.81837E-16  2.43489E+01  1.38154E-03  1.0E-07
  8.750E-01  5.83045E-05  6.81808E-16  2.43478E+01  1.42217E-03  1.0E-07
  9.000E-01  6.16838E-05  6.81778E-16  2.43467E+01  1.46280E-03  1.0E-07
  9.250E-01  6.51582E-05  6.81747E-16  2.43456E+01  1.50343E-03  1.0E-07
  9.500E-01  6.87277E-05  6.81716E-16  2.43445E+01  1.54406E-03  1.0E-07
  9.750E-01  7.23925E-05  6.81683E-16  2.43433E+01  1.58469E-03  1.0E-07
  1.000E+00  7.61524E-05  6.81650E-16  2.43422E+01  1.62532E-03  1.0E-07
  1.100E+00  9.21439E-05  6.81508E-16  2.43371E+01  1.78782E-03  1.0E-07
  1.200E+00  1.09658E-04  6.81352E-16  2.43315E+01  1.95033E-03  1.0E-07
  1.300E+00  1.28695E-04  6.81183E-16  2.43255E+01  2.11282E-03  1.0E-07
  1.400E+00  1.49255E-04  6.81000E-16  2.43190E+01  2.27531E-03  1.0E-07
  1.500E+00  1.71338E-04  6.80804E-16  2.43120E+01  2.43779E-03  1.0E-07
  1.600E+00  1.94942E-04  6.80595E-16  2.43045E+01  2.60026E-03  1.0E-07
  1.700E+00  2.20070E-04  6.80372E-16  2.42965E+01  2.76272E-03  1.0E-07
  1.800E+00  2.46720E-04  6.80136E-16  2.42881E+01  2.92517E-03  1.0E-07
  1.900E+00  2.74892E-04  6.79886E-16  2.42792E+01  3.08760E-03  1.0E-07
  2.000E+00  3.04586E-04  6.79623E-16  2.42698E+01  3.25003E-03  1.0E-07
  2.100E+00  3.35803E-04  6.79346E-16  2.42599E+01  3.41245E-03  1.0E-07
  2.200E+00  3.68542E-04  6.79056E-16  2.42495E+01  3.57485E-03  1.0E-07
  2.300E+00  4.02802E-04  6.78752E-16  2.42387E+01  3.73724E-03  1.0E-07
  2.400E+00  4.38585E-04  6.78436E-16  2.42274E+01  3.89961E-03  1.0E-07
  2.500E+00  4.75889E-04  6.78105E-16  2.42156E+01  4.06197E-03  1.0E-07
  2.600E+00  5.14715E-04  6.77762E-16  2.42033E+01  4.22432E-03  1.0E-07
  2.700E+00  5.55063E-04  6.77405E-16  2.41906E+01  4.38664E-03  1.0E-07
  2.800E+00  5.96931E-04  6.77035E-16  2.41774E+01  4.54896E-03  1.0E-07
  2.900E+00  6.40321E-04  6.76651E-16  2.41637E+01  4.71125E-03  1.0E-07
  3.000E+00  6.85233E-04  6.76255E-16  2.41495E+01  4.87353E-03  1.0E-07
  3.100E+00  7.31665E-04  6.75845E-16  2.41349E+01  5.03578E-03  1.0E-07
  3.200E+00  7.79618E-04  6.75422E-16  2.41197E+01  5.19802E-03  1.0E-07
  3.300E+00  8.29092E-04  6.74985E-16  2.41042E+01  5.36024E-03  1.0E-07
  3.400E+00  8.80086E-04  6.74536E-16  2.40881E+01  5.52244E-03  1.0E-07
  3.500E+00  9.32601E-04  6.74073E-16  2.40716E+01  5.68461E-03  1.0E-07
  3.600E+00  9.86636E-04  6.73597E-16  2.40546E+01  5.84677E-03  1.0E-07
  3.700E+00  1.04219E-03  6.73108E-16  2.40371E+01  6.00890E-03  1.0E-07
  3.800E+00  1.09927E-03  6.72606E-16  2.40192E+01  6.17101E-03  1.0E-07
  3.900E+00  1.15786E-03  6.72090E-16  2.40008E+01  6.33309E-03  1.0E-07
  4.000E+00  1.21797E-03  6.71562E-16  2.39819E+01  6.49515E-03  1.0E-07
  4.100E+00  1.27961E-03  6.71021E-16  2.39626E+01  6.65718E-03  1.0E-07
  4.200E+00  1.34276E-03  6.70467E-16  2.39428E+01  6.81919E-03  1.0E-07
  4.300E+00  1.40743E-03  6.69899E-16  2.39225E+01  6.98116E-03  1.0E-07
  4.400E+00  1.47362E-03  6.69319E-16  2.39018E+01  7.14311E-03  1.0E-07
  4.500E+00  1.54133E-03  6.68726E-16  2.38806E+01  7.30504E-03  1.0E-07
  4.600E+00  1.61056E-03  6.68120E-16  2.38590E+01  7.46693E-03  1.0E-07
  4.700E+00  1.68131E-03  6.67501E-16  2.38369E+01  7.62879E-03  1.0E-07
  4.800E+00  1.75357E-03  6.66869E-16  2.38143E+01  7.79062E-03  1.0E-07
  4.900E+00  1.82735E-03  6.66225E-16  2.37913E+01  7.95242E-03  1.0E-07
  5.000E+00  1.90265E-03  6.65567E-16  2.37678E+01  8.11418E-03  1.0E-07
  5.100E+00  1.97947E-03  6.64897E-16  2.37439E+01  8.27592E-03  1.0E-07
  5.200E+00  2.05780E-03  6.64214E-16  2.37195E+01  8.43761E-03  1.0E-07
  5.300E+00  2.13765E-03  6.63519E-16  2.36947E+01  8.59928E-03  1.0E-07
  5.400E+00  2.21902E-03  6.62811E-16  2.36694E+01  8.76090E-03  1.0E-07
  5.500E+00  2.30190E-03  6.62090E-16  2.36437E+01  8.92249E-03  1.0E-07
  5.600E+00  2.38630E-03  6.61357E-16  2.36175E+01  9.08404E-03  1.0E-07
  5.700E+00  2.47222E-03  6.60611E-16  2.35908E+01  9.24556E-03  1.0E-07
  5.800E+00  2.55965E-03  6.59853E-16  2.35638E+01  9.40703E-03  1.0E-07
  5.900E+00  2.64859E-03  6.59082E-16  2.35362E+01  9.56846E-03  1.0E-07
  6.000E+00  2.73905E-03  6.58298E-16  2.35083E+01  9.72985E-03  1.0E-07
  6.100E+00  2.83103E-03  6.57503E-16  2.34799E+01  9.89120E-03  1.0E-07
  6.200E+00  2.92452E-03  6.56695E-16  2.34510E+01  1.00525E-02  1.0E-07
  6.300E+00  3.01952E-03  6.55874E-16  2.34217E+01  1.02138E-02  1.0E-07
  6.400E+00  3.11604E-03  6.55042E-16  2.33920E+01  1.03750E-02  1.0E-07
  6.500E+00  3.21407E-03  6.54197E-16  2.33618E+01  1.05362E-02  1.0E-07
  6.600E+00  3.31362E-03  6.53340E-16  2.33312E+01  1.06973E-02  1.0E-07
  6.700E+00  3.41468E-03  6.52470E-16  2.33001E+01  1.08583E-02  1.0E-07
  6.800E+00  3.51725E-03  6.51589E-16  2.32687E+01  1.10194E-02  1.0E-07
  6.900E+00  3.62133E-03  6.50696E-16  2.32368E+01  1.11803E-02  1.0E-07
  7.000E+00  3.72692E-03  6.49790E-16  2.32044E+01  1.13413E-02  1.0E-07
  7.100E+00  3.83403E-03  6.48873E-16  2.31717E+01  1.15021E-02  1.0E-07
  7.200E+00  3.94265E-03  6.47943E-16  2.31385E+01  1.16630E-02  1.0E-07
  7.300E+00  4.05278E-03  6.47002E-16  2.31049E+01  1.18237E-02  1.0E-07
  7.400E+00  4.16442E-03  6.46048E-16  2.30708E+01  1.19844E-02  1.0E-07
  7.500E+00  4.27757E-03  6.45083E-16  2.30363E+01  1.21451E-02  1.0E-07
  7.600E+00  4.39223E-03  6.44106E-16  2.30015E+01  1.23057E-02  1.0E-07
  7.700E+00  4.50840E-03  6.43118E-16  2.29662E+01  1.24662E-02  1.0E-07
  7.800E+00  4.62608E-03  6.42118E-16  2.29304E+01  1.26267E-02  1.0E-07
  7.900E+00  4.74527E-03  6.41106E-16  2.28943E+01  1.27871E-02  1.0E-07
  8.000E+00  4.86597E-03  6.40082E-16  2.28577E+01  1.29474E-02  1.0E-07
  8.100E+00  4.98817E-03  6.39047E-16  2.28208E+01  1.31077E-02  1.0E-07
  8.200E+00  5.11188E-03  6.38001E-16  2.27834E+01  1.32679E-02  1.0E-07
  8.300E+00  5.23711E-03  6.36943E-16  2.27456E+01  1.34281E-02  1.0E-07
  8.400E+00  5.36383E-03  6.35873E-16  2.27074E+01  1.35882E-02  1.0E-07
  8.500E+00  5.49207E-03  6.34792E-16  2.26688E+01  1.37482E-02  1.0E-07
  8.600E+00  5.62181E-03  6.33700E-16  2.26299E+01  1.39081E-02  1.0E-07
  8.700E+00  5.75306E-03  6.32597E-16  2.25905E+01  1.40680E-02  1.0E-07
  8.800E+00  5.88581E-03  6.31483E-16  2.25507E+01  1.42278E-02  1.0E-07
  8.900E+00  6.02007E-03  6.30357E-16  2.25105E+01  1.43875E-02  1.0E-07
  9.000E+00  6.15583E-03  6.29220E-16  2.24699E+01  1.45472E-02  1.0E-07
  9.100E+00  6.29310E-03  6.28073E-16  2.24289E+01  1.47068E-02  1.0E-07
  9.200E+00  6.43187E-03  6.26914E-16  2.23875E+01  1.48663E-02  1.0E-07
  9.300E+00  6.57214E-03  6.25744E-16  2.23457E+01  1.50257E-02  1.0E-07
  9.400E+00  6.71392E-03  6.24564E-16  2.23036E+01  1.51850E-02  1.0E-07
  9.500E+00  6.85720E-03  6.23372E-16  2.22610E+01  1.53443E-02  1.0E-07
  9.600E+00  7.00198E-03  6.22170E-16  2.22181E+01  1.55034E-02  1.0E-07
  9.700E+00  7.14827E-03  6.20957E-16  2.21748E+01  1.56625E-02  1.0E-07
  9.800E+00  7.29605E-03  6.19734E-16  2.21311E+01  1.58215E-02  1.0E-07
  9.900E+00  7.44534E-03  6.18500E-16  2.20870E+01  1.59804E-02  1.0E-07
  1.000E+01  7.59612E-03  6.17255E-16  2.20426E+01  1.61392E-02  1.0E-07
  1.025E+01  7.97965E-03  6.14098E-16  2.19298E+01  1.65359E-02  1.0E-07
  1.050E+01  8.37255E-03  6.10876E-16  2.18148E+01  1.69319E-02  1.0E-07
  1.075E+01  8.77480E-03  6.07590E-16  2.16974E+01  1.73273E-02  1.0E-07
  1.100E+01  9.18641E-03  6.04242E-16  2.15779E+01  1.77220E-02  1.0E-07
  1.125E+01  9.60736E-03  6.00832E-16  2.14561E+01  1.81160E-02  1.0E-07
  1.150E+01  1.00376E-02  5.97361E-16  2.13321E+01  1.85094E-02  1.0E-07
  1.175E+01  1.04773E-02  5.93830E-16  2.12061E+01  1.89019E-02  1.0E-07
  1.200E+01  1.09262E-02  5.90241E-16  2.10779E+01  1.92937E-02  1.0E-07
  1.225E+01  1.13844E-02  5.86594E-16  2.09476E+01  1.96847E-02  1.0E-07
  1.250E+01  1.18520E-02  5.82890E-16  2.08154E+01  2.00748E-02  1.0E-07
  1.275E+01  1.23288E-02  5.79130E-16  2.06811E+01  2.04640E-02  1.0E-07
  1.300E+01  1.28150E-02  5.75316E-16  2.05449E+01  2.08523E-02  1.0E-07
  1.325E+01  1.33104E-02  5.71448E-16  2.04068E+01  2.12396E-02  1.0E-07
  1.350E+01  1.38150E-02  5.67528E-16  2.02668E+01  2.16259E-02  1.0E-07
  1.375E+01  1.43290E-02  5.63557E-16  2.01250E+01  2.20112E-02  1.0E-07
  1.400E+01  1.48521E-02  5.59535E-16  1.99814E+01  2.23953E-02  1.0E-07
  1.425E+01  1.53845E-02  5.55464E-16  1.98360E+01  2.27783E-02  1.0E-07
  1.450E+01  1.59262E-02  5.51345E-16  1.96889E+01  2.31601E-02  1.0E-07
  1.475E+01  1.64770E-02  5.47180E-16  1.95401E+01  2.35407E-02  1.0E-07
  1.500E+01  1.70371E-02  5.42969E-16  1.93898E+01  2.39199E-02  1.0E-07
  1.525E+01  1.76063E-02  5.38713E-16  1.92378E+01  2.42978E-02  1.0E-07
