 #
 # Subroutine ELSEPA. Elastic scattering of electrons and positrons
 #                    by neutral atoms and positive ions
 #
 # Projectile: electron
 # Kinetic energy = 4.50000E+01 eV = 1.65372E+00 a.u.
 #
 #  ***  WARNING: Energy is too low.
 #                The reliability of the results is questionable.
 #
 # Element: Hg,  Z =  80,  atomic weight = 2.00590E+02 g/mol
 #
 # Nuclear model: Fermi distribution
 #                Average radius = 6.26355E-13 cm
 #                Skin thickness = 5.46000E-14 cm
 #
 # Number of electrons = 80
 #
 # Electron density: Read from file z_080.den   
 #                   Number of data points =  763
 #                   Volume integral = 8.00000E+01
 #
 # Total elastic cross section = 9.39860E-16 cm**2 = 3.35630E+01 a0**2
 # 1st transport cross section = 4.24323E-16 cm**2 = 1.51529E+01 a0**2
 # 2nd transport cross section = 5.28156E-16 cm**2 = 1.88608E+01 a0**2
 #
 #
 # Differential cross section:                       MU=(1-COS(THETA))/2
 #
 #  THETA        MU          DCS          DCS        Sherman      error
 #  (deg)                 (cm**2/sr)   (a0**2/sr)    function
 #----------------------------------------------------------------------
  0.000E+00  0.00000E+00  7.23239E-16  2.58273E+01  0.00000E+00  1.0E-07
  1.000E-04  7.61557E-13  7.23239E-16  2.58273E+01  1.71474E-09  1.0E-07
  1.250E-04  1.18994E-12  7.23239E-16  2.58273E+01  2.14342E-09  1.0E-07
  1.500E-04  1.71346E-12  7.23239E-16  2.58273E+01  2.57211E-09  1.0E-07
  1.750E-04  2.33225E-12  7.23239E-16  2.58273E+01  3.00079E-09  1.0E-07
  2.000E-04  3.04617E-12  7.23239E-16  2.58273E+01  3.42948E-09  1.0E-07
  2.250E-04  3.85530E-12  7.23239E-16  2.58273E+01  3.85816E-09  1.0E-07
  2.500E-04  4.75964E-12  7.23239E-16  2.58273E+01  4.28685E-09  1.0E-07
  2.750E-04  5.75917E-12  7.23239E-16  2.58273E+01  4.71553E-09  1.0E-07
  3.000E-04  6.85391E-12  7.23239E-16  2.58273E+01  5.14422E-09  1.0E-07
  3.250E-04  8.04379E-12  7.23239E-16  2.58273E+01  5.57290E-09  1.0E-07
  3.500E-04  9.32893E-12  7.23239E-16  2.58273E+01  6.00158E-09  1.0E-07
  3.750E-04  1.07092E-11  7.23239E-16  2.58273E+01  6.43027E-09  1.0E-07
  4.000E-04  1.21847E-11  7.23239E-16  2.58273E+01  6.85895E-09  1.0E-07
  4.250E-04  1.37554E-11  7.23239E-16  2.58273E+01  7.28764E-09  1.0E-07
  4.500E-04  1.54213E-11  7.23239E-16  2.58273E+01  7.71632E-09  1.0E-07
  4.750E-04  1.71823E-11  7.23239E-16  2.58273E+01  8.14501E-09  1.0E-07
  5.000E-04  1.90386E-11  7.23239E-16  2.58273E+01  8.57369E-09  1.0E-07
  5.250E-04  2.09900E-11  7.23239E-16  2.58273E+01  9.00238E-09  1.0E-07
  5.500E-04  2.30367E-11  7.23239E-16  2.58273E+01  9.43106E-09  1.0E-07
  5.750E-04  2.51785E-11  7.23239E-16  2.58273E+01  9.85975E-09  1.0E-07
  6.000E-04  2.74156E-11  7.23239E-16  2.58273E+01  1.02884E-08  1.0E-07
  6.250E-04  2.97478E-11  7.23239E-16  2.58273E+01  1.07171E-08  1.0E-07
  6.500E-04  3.21752E-11  7.23239E-16  2.58273E+01  1.11458E-08  1.0E-07
  6.750E-04  3.46979E-11  7.23239E-16  2.58273E+01  1.15745E-08  1.0E-07
  7.000E-04  3.73157E-11  7.23239E-16  2.58273E+01  1.20032E-08  1.0E-07
  7.250E-04  4.00286E-11  7.23239E-16  2.58273E+01  1.24319E-08  1.0E-07
  7.500E-04  4.28368E-11  7.23239E-16  2.58273E+01  1.28605E-08  1.0E-07
  7.750E-04  4.57402E-11  7.23239E-16  2.58273E+01  1.32892E-08  1.0E-07
  8.000E-04  4.87388E-11  7.23239E-16  2.58273E+01  1.37179E-08  1.0E-07
  8.250E-04  5.18325E-11  7.23239E-16  2.58273E+01  1.41466E-08  1.0E-07
  8.500E-04  5.50215E-11  7.23239E-16  2.58273E+01  1.45753E-08  1.0E-07
  8.750E-04  5.83057E-11  7.23239E-16  2.58273E+01  1.50040E-08  1.0E-07
  9.000E-04  6.16850E-11  7.23239E-16  2.58273E+01  1.54326E-08  1.0E-07
  9.250E-04  6.51595E-11  7.23239E-16  2.58273E+01  1.58613E-08  1.0E-07
  9.500E-04  6.87293E-11  7.23239E-16  2.58273E+01  1.62900E-08  1.0E-07
  9.750E-04  7.23943E-11  7.23239E-16  2.58273E+01  1.67187E-08  1.0E-07
  1.000E-03  7.61544E-11  7.23239E-16  2.58273E+01  1.71474E-08  1.0E-07
  1.250E-03  1.18991E-10  7.23239E-16  2.58273E+01  2.14342E-08  1.0E-07
  1.500E-03  1.71347E-10  7.23239E-16  2.58273E+01  2.57211E-08  1.0E-07
  1.750E-03  2.33223E-10  7.23239E-16  2.58273E+01  3.00079E-08  1.0E-07
  2.000E-03  3.04617E-10  7.23239E-16  2.58273E+01  3.42948E-08  1.0E-07
  2.250E-03  3.85531E-10  7.23239E-16  2.58273E+01  3.85816E-08  1.0E-07
  2.500E-03  4.75965E-10  7.23239E-16  2.58273E+01  4.28685E-08  1.0E-07
  2.750E-03  5.75917E-10  7.23239E-16  2.58273E+01  4.71553E-08  1.0E-07
  3.000E-03  6.85389E-10  7.23239E-16  2.58273E+01  5.14422E-08  1.0E-07
  3.250E-03  8.04380E-10  7.23239E-16  2.58273E+01  5.57291E-08  1.0E-07
  3.500E-03  9.32891E-10  7.23239E-16  2.58273E+01  6.00159E-08  1.0E-07
  3.750E-03  1.07092E-09  7.23239E-16  2.58273E+01  6.43028E-08  1.0E-07
  4.000E-03  1.21847E-09  7.23239E-16  2.58273E+01  6.85896E-08  1.0E-07
  4.250E-03  1.37554E-09  7.23239E-16  2.58273E+01  7.28765E-08  1.0E-07
  4.500E-03  1.54213E-09  7.23239E-16  2.58273E+01  7.71634E-08  1.0E-07
  4.750E-03  1.71823E-09  7.23239E-16  2.58273E+01  8.14502E-08  1.0E-07
  5.000E-03  1.90386E-09  7.23239E-16  2.58273E+01  8.57371E-08  1.0E-07
  5.250E-03  2.09900E-09  7.23239E-16  2.58273E+01  9.00240E-08  1.0E-07
  5.500E-03  2.30367E-09  7.23239E-16  2.58273E+01  9.43109E-08  1.0E-07
  5.750E-03  2.51785E-09  7.23239E-16  2.58273E+01  9.85977E-08  1.0E-07
  6.000E-03  2.74156E-09  7.23239E-16  2.58273E+01  1.02885E-07  1.0E-07
  6.250E-03  2.97478E-09  7.23239E-16  2.58273E+01  1.07172E-07  1.0E-07
  6.500E-03  3.21752E-09  7.23239E-16  2.58273E+01  1.11458E-07  1.0E-07
  6.750E-03  3.46978E-09  7.23239E-16  2.58273E+01  1.15745E-07  1.0E-07
  7.000E-03  3.73156E-09  7.23239E-16  2.58273E+01  1.20032E-07  1.0E-07
  7.250E-03  4.00286E-09  7.23239E-16  2.58273E+01  1.24319E-07  1.0E-07
  7.500E-03  4.28368E-09  7.23239E-16  2.58273E+01  1.28606E-07  1.0E-07
  7.750E-03  4.57402E-09  7.23239E-16  2.58273E+01  1.32893E-07  1.0E-07
  8.000E-03  4.87388E-09  7.23239E-16  2.58273E+01  1.37180E-07  1.0E-07
  8.250E-03  5.18326E-09  7.23239E-16  2.58273E+01  1.41467E-07  1.0E-07
  8.500E-03  5.50215E-09  7.23239E-16  2.58273E+01  1.45754E-07  1.0E-07
  8.750E-03  5.83057E-09  7.23239E-16  2.58273E+01  1.50041E-07  1.0E-07
  9.000E-03  6.16850E-09  7.23239E-16  2.58273E+01  1.54328E-07  1.0E-07
  9.250E-03  6.51596E-09  7.23239E-16  2.58273E+01  1.58614E-07  1.0E-07
  9.500E-03  6.87293E-09  7.23239E-16  2.58273E+01  1.62901E-07  1.0E-07
  9.750E-03  7.23942E-09  7.23239E-16  2.58273E+01  1.67188E-07  1.0E-07
  1.000E-02  7.61544E-09  7.23239E-16  2.58273E+01  1.71475E-07  1.0E-07
  1.250E-02  1.18991E-08  7.23239E-16  2.58273E+01  2.14345E-07  1.0E-07
  1.500E-02  1.71347E-08  7.23239E-16  2.58273E+01  2.57216E-07  1.0E-07
  1.750E-02  2.33223E-08  7.23238E-16  2.58273E+01  3.00087E-07  1.0E-07
  2.000E-02  3.04617E-08  7.23238E-16  2.58273E+01  3.42959E-07  1.0E-07
  2.250E-02  3.85531E-08  7.23238E-16  2.58273E+01  3.85832E-07  1.0E-07
  2.500E-02  4.75965E-08  7.23238E-16  2.58273E+01  4.28707E-07  1.0E-07
  2.750E-02  5.75917E-08  7.23238E-16  2.58273E+01  4.71583E-07  1.0E-07
  3.000E-02  6.85389E-08  7.23238E-16  2.58273E+01  5.14460E-07  1.0E-07
  3.250E-02  8.04380E-08  7.23238E-16  2.58273E+01  5.57339E-07  1.0E-07
  3.500E-02  9.32891E-08  7.23237E-16  2.58273E+01  6.00220E-07  1.0E-07
  3.750E-02  1.07092E-07  7.23237E-16  2.58273E+01  6.43102E-07  1.0E-07
  4.000E-02  1.21847E-07  7.23237E-16  2.58273E+01  6.85987E-07  1.0E-07
  4.250E-02  1.37554E-07  7.23237E-16  2.58273E+01  7.28874E-07  1.0E-07
  4.500E-02  1.54213E-07  7.23237E-16  2.58272E+01  7.71762E-07  1.0E-07
  4.750E-02  1.71823E-07  7.23236E-16  2.58272E+01  8.14654E-07  1.0E-07
  5.000E-02  1.90386E-07  7.23236E-16  2.58272E+01  8.57548E-07  1.0E-07
  5.250E-02  2.09900E-07  7.23236E-16  2.58272E+01  9.00444E-07  1.0E-07
  5.500E-02  2.30367E-07  7.23236E-16  2.58272E+01  9.43344E-07  1.0E-07
  5.750E-02  2.51785E-07  7.23235E-16  2.58272E+01  9.86246E-07  1.0E-07
  6.000E-02  2.74156E-07  7.23235E-16  2.58272E+01  1.02915E-06  1.0E-07
  6.250E-02  2.97478E-07  7.23235E-16  2.58272E+01  1.07206E-06  1.0E-07
  6.500E-02  3.21752E-07  7.23234E-16  2.58272E+01  1.11497E-06  1.0E-07
  6.750E-02  3.46978E-07  7.23234E-16  2.58272E+01  1.15789E-06  1.0E-07
  7.000E-02  3.73156E-07  7.23234E-16  2.58271E+01  1.20081E-06  1.0E-07
  7.250E-02  4.00286E-07  7.23233E-16  2.58271E+01  1.24373E-06  1.0E-07
  7.500E-02  4.28368E-07  7.23233E-16  2.58271E+01  1.28666E-06  1.0E-07
  7.750E-02  4.57402E-07  7.23232E-16  2.58271E+01  1.32959E-06  1.0E-07
  8.000E-02  4.87388E-07  7.23232E-16  2.58271E+01  1.37252E-06  1.0E-07
  8.250E-02  5.18325E-07  7.23232E-16  2.58271E+01  1.41546E-06  1.0E-07
  8.500E-02  5.50215E-07  7.23231E-16  2.58271E+01  1.45840E-06  1.0E-07
  8.750E-02  5.83057E-07  7.23231E-16  2.58270E+01  1.50135E-06  1.0E-07
  9.000E-02  6.16850E-07  7.23230E-16  2.58270E+01  1.54431E-06  1.0E-07
  9.250E-02  6.51596E-07  7.23230E-16  2.58270E+01  1.58726E-06  1.0E-07
  9.500E-02  6.87293E-07  7.23229E-16  2.58270E+01  1.63023E-06  1.0E-07
  9.750E-02  7.23942E-07  7.23229E-16  2.58270E+01  1.67319E-06  1.0E-07
  1.000E-01  7.61543E-07  7.23228E-16  2.58269E+01  1.71617E-06  1.0E-07
  1.250E-01  1.18991E-06  7.23222E-16  2.58267E+01  2.14621E-06  1.0E-07
  1.500E-01  1.71347E-06  7.23215E-16  2.58265E+01  2.57693E-06  1.0E-07
  1.750E-01  2.33223E-06  7.23206E-16  2.58262E+01  3.00845E-06  1.0E-07
  2.000E-01  3.04617E-06  7.23196E-16  2.58258E+01  3.44090E-06  1.0E-07
  2.250E-01  3.85531E-06  7.23184E-16  2.58254E+01  3.87443E-06  1.0E-07
  2.500E-01  4.75964E-06  7.23172E-16  2.58249E+01  4.30917E-06  1.0E-07
  2.750E-01  5.75916E-06  7.23158E-16  2.58244E+01  4.74524E-06  1.0E-07
  3.000E-01  6.85388E-06  7.23142E-16  2.58239E+01  5.18278E-06  1.0E-07
  3.250E-01  8.04378E-06  7.23125E-16  2.58233E+01  5.62194E-06  1.0E-07
  3.500E-01  9.32888E-06  7.23107E-16  2.58226E+01  6.06283E-06  1.0E-07
  3.750E-01  1.07092E-05  7.23088E-16  2.58219E+01  6.50560E-06  1.0E-07
  4.000E-01  1.21846E-05  7.23067E-16  2.58212E+01  6.95038E-06  1.0E-07
  4.250E-01  1.37553E-05  7.23045E-16  2.58204E+01  7.39730E-06  1.0E-07
  4.500E-01  1.54212E-05  7.23022E-16  2.58196E+01  7.84650E-06  1.0E-07
  4.750E-01  1.71822E-05  7.22997E-16  2.58187E+01  8.29811E-06  1.0E-07
  5.000E-01  1.90385E-05  7.22971E-16  2.58178E+01  8.75227E-06  1.0E-07
  5.250E-01  2.09899E-05  7.22943E-16  2.58168E+01  9.20911E-06  1.0E-07
  5.500E-01  2.30365E-05  7.22914E-16  2.58157E+01  9.66876E-06  1.0E-07
  5.750E-01  2.51783E-05  7.22884E-16  2.58147E+01  1.01314E-05  1.0E-07
  6.000E-01  2.74153E-05  7.22853E-16  2.58135E+01  1.05970E-05  1.0E-07
  6.250E-01  2.97475E-05  7.22820E-16  2.58124E+01  1.10659E-05  1.0E-07
  6.500E-01  3.21749E-05  7.22786E-16  2.58111E+01  1.15382E-05  1.0E-07
  6.750E-01  3.46974E-05  7.22750E-16  2.58099E+01  1.20139E-05  1.0E-07
  7.000E-01  3.73152E-05  7.22713E-16  2.58086E+01  1.24933E-05  1.0E-07
  7.250E-01  4.00281E-05  7.22675E-16  2.58072E+01  1.29764E-05  1.0E-07
  7.500E-01  4.28362E-05  7.22636E-16  2.58058E+01  1.34633E-05  1.0E-07
  7.750E-01  4.57395E-05  7.22595E-16  2.58043E+01  1.39544E-05  1.0E-07
  8.000E-01  4.87380E-05  7.22553E-16  2.58028E+01  1.44495E-05  1.0E-07
  8.250E-01  5.18317E-05  7.22509E-16  2.58013E+01  1.49490E-05  1.0E-07
  8.500E-01  5.50205E-05  7.22464E-16  2.57997E+01  1.54529E-05  1.0E-07
  8.750E-01  5.83045E-05  7.22418E-16  2.57980E+01  1.59613E-05  1.0E-07
  9.000E-01  6.16838E-05  7.22371E-16  2.57963E+01  1.64744E-05  1.0E-07
  9.250E-01  6.51582E-05  7.22322E-16  2.57946E+01  1.69924E-05  1.0E-07
  9.500E-01  6.87277E-05  7.22272E-16  2.57928E+01  1.75153E-05  1.0E-07
  9.750E-01  7.23925E-05  7.22220E-16  2.57909E+01  1.80434E-05  1.0E-07
  1.000E+00  7.61524E-05  7.22167E-16  2.57891E+01  1.85766E-05  1.0E-07
  1.100E+00  9.21439E-05  7.21942E-16  2.57810E+01  2.07647E-05  1.0E-07
  1.200E+00  1.09658E-04  7.21697E-16  2.57723E+01  2.30472E-05  1.0E-07
  1.300E+00  1.28695E-04  7.21429E-16  2.57627E+01  2.54329E-05  1.0E-07
  1.400E+00  1.49255E-04  7.21141E-16  2.57524E+01  2.79303E-05  1.0E-07
  1.500E+00  1.71338E-04  7.20831E-16  2.57414E+01  3.05482E-05  1.0E-07
  1.600E+00  1.94942E-04  7.20501E-16  2.57295E+01  3.32952E-05  1.0E-07
  1.700E+00  2.20070E-04  7.20149E-16  2.57170E+01  3.61800E-05  1.0E-07
  1.800E+00  2.46720E-04  7.19776E-16  2.57037E+01  3.92112E-05  1.0E-07
  1.900E+00  2.74892E-04  7.19383E-16  2.56896E+01  4.23977E-05  1.0E-07
  2.000E+00  3.04586E-04  7.18968E-16  2.56748E+01  4.57482E-05  1.0E-07
  2.100E+00  3.35803E-04  7.18533E-16  2.56593E+01  4.92713E-05  1.0E-07
  2.200E+00  3.68542E-04  7.18077E-16  2.56430E+01  5.29760E-05  1.0E-07
  2.300E+00  4.02802E-04  7.17600E-16  2.56260E+01  5.68709E-05  1.0E-07
  2.400E+00  4.38585E-04  7.17102E-16  2.56082E+01  6.09649E-05  1.0E-07
  2.500E+00  4.75889E-04  7.16584E-16  2.55897E+01  6.52669E-05  1.0E-07
  2.600E+00  5.14715E-04  7.16046E-16  2.55705E+01  6.97856E-05  1.0E-07
  2.700E+00  5.55063E-04  7.15487E-16  2.55505E+01  7.45301E-05  1.0E-07
  2.800E+00  5.96931E-04  7.14907E-16  2.55298E+01  7.95091E-05  1.0E-07
  2.900E+00  6.40321E-04  7.14308E-16  2.55084E+01  8.47316E-05  1.0E-07
  3.000E+00  6.85233E-04  7.13688E-16  2.54863E+01  9.02066E-05  1.0E-07
  3.100E+00  7.31665E-04  7.13049E-16  2.54634E+01  9.59430E-05  1.0E-07
  3.200E+00  7.79618E-04  7.12389E-16  2.54399E+01  1.01950E-04  1.0E-07
  3.300E+00  8.29092E-04  7.11709E-16  2.54156E+01  1.08236E-04  1.0E-07
  3.400E+00  8.80086E-04  7.11010E-16  2.53906E+01  1.14812E-04  1.0E-07
  3.500E+00  9.32601E-04  7.10291E-16  2.53649E+01  1.21684E-04  1.0E-07
  3.600E+00  9.86636E-04  7.09552E-16  2.53386E+01  1.28864E-04  1.0E-07
  3.700E+00  1.04219E-03  7.08794E-16  2.53115E+01  1.36359E-04  1.0E-07
  3.800E+00  1.09927E-03  7.08017E-16  2.52837E+01  1.44180E-04  1.0E-07
  3.900E+00  1.15786E-03  7.07220E-16  2.52553E+01  1.52335E-04  1.0E-07
  4.000E+00  1.21797E-03  7.06404E-16  2.52261E+01  1.60834E-04  1.0E-07
  4.100E+00  1.27961E-03  7.05569E-16  2.51963E+01  1.69686E-04  1.0E-07
  4.200E+00  1.34276E-03  7.04715E-16  2.51658E+01  1.78901E-04  1.0E-07
  4.300E+00  1.40743E-03  7.03843E-16  2.51347E+01  1.88487E-04  1.0E-07
  4.400E+00  1.47362E-03  7.02952E-16  2.51029E+01  1.98454E-04  1.0E-07
  4.500E+00  1.54133E-03  7.02042E-16  2.50704E+01  2.08812E-04  1.0E-07
  4.600E+00  1.61056E-03  7.01114E-16  2.50372E+01  2.19569E-04  1.0E-07
  4.700E+00  1.68131E-03  7.00167E-16  2.50034E+01  2.30737E-04  1.0E-07
  4.800E+00  1.75357E-03  6.99203E-16  2.49690E+01  2.42323E-04  1.0E-07
  4.900E+00  1.82735E-03  6.98220E-16  2.49339E+01  2.54339E-04  1.0E-07
  5.000E+00  1.90265E-03  6.97219E-16  2.48982E+01  2.66792E-04  1.0E-07
  5.100E+00  1.97947E-03  6.96201E-16  2.48618E+01  2.79694E-04  1.0E-07
  5.200E+00  2.05780E-03  6.95165E-16  2.48248E+01  2.93054E-04  1.0E-07
  5.300E+00  2.13765E-03  6.94112E-16  2.47872E+01  3.06881E-04  1.0E-07
  5.400E+00  2.21902E-03  6.93041E-16  2.47490E+01  3.21186E-04  1.0E-07
  5.500E+00  2.30190E-03  6.91954E-16  2.47101E+01  3.35978E-04  1.0E-07
  5.600E+00  2.38630E-03  6.90849E-16  2.46707E+01  3.51267E-04  1.0E-07
  5.700E+00  2.47222E-03  6.89727E-16  2.46306E+01  3.67064E-04  1.0E-07
  5.800E+00  2.55965E-03  6.88589E-16  2.45899E+01  3.83377E-04  1.0E-07
  5.900E+00  2.64859E-03  6.87434E-16  2.45487E+01  4.00218E-04  1.0E-07
  6.000E+00  2.73905E-03  6.86262E-16  2.45069E+01  4.17596E-04  1.0E-07
  6.100E+00  2.83103E-03  6.85075E-16  2.44645E+01  4.35522E-04  1.0E-07
  6.200E+00  2.92452E-03  6.83871E-16  2.44215E+01  4.54005E-04  1.0E-07
  6.300E+00  3.01952E-03  6.82652E-16  2.43779E+01  4.73056E-04  1.0E-07
  6.400E+00  3.11604E-03  6.81416E-16  2.43338E+01  4.92685E-04  1.0E-07
  6.500E+00  3.21407E-03  6.80165E-16  2.42891E+01  5.12903E-04  1.0E-07
  6.600E+00  3.31362E-03  6.78899E-16  2.42439E+01  5.33719E-04  1.0E-07
  6.700E+00  3.41468E-03  6.77617E-16  2.41982E+01  5.55145E-04  1.0E-07
  6.800E+00  3.51725E-03  6.76321E-16  2.41518E+01  5.77190E-04  1.0E-07
  6.900E+00  3.62133E-03  6.75009E-16  2.41050E+01  5.99866E-04  1.0E-07
  7.000E+00  3.72692E-03  6.73683E-16  2.40576E+01  6.23182E-04  1.0E-07
  7.100E+00  3.83403E-03  6.72342E-16  2.40098E+01  6.47150E-04  1.0E-07
  7.200E+00  3.94265E-03  6.70986E-16  2.39614E+01  6.71780E-04  1.0E-07
  7.300E+00  4.05278E-03  6.69617E-16  2.39124E+01  6.97082E-04  1.0E-07
  7.400E+00  4.16442E-03  6.68233E-16  2.38630E+01  7.23068E-04  1.0E-07
  7.500E+00  4.27757E-03  6.66835E-16  2.38131E+01  7.49749E-04  1.0E-07
  7.600E+00  4.39223E-03  6.65424E-16  2.37627E+01  7.77135E-04  1.0E-07
  7.700E+00  4.50840E-03  6.63999E-16  2.37118E+01  8.05237E-04  1.0E-07
  7.800E+00  4.62608E-03  6.62561E-16  2.36605E+01  8.34066E-04  1.0E-07
  7.900E+00  4.74527E-03  6.61110E-16  2.36087E+01  8.63633E-04  1.0E-07
  8.000E+00  4.86597E-03  6.59646E-16  2.35564E+01  8.93950E-04  1.0E-07
  8.100E+00  4.98817E-03  6.58169E-16  2.35036E+01  9.25027E-04  1.0E-07
  8.200E+00  5.11188E-03  6.56679E-16  2.34504E+01  9.56875E-04  1.0E-07
  8.300E+00  5.23711E-03  6.55177E-16  2.33968E+01  9.89506E-04  1.0E-07
  8.400E+00  5.36383E-03  6.53663E-16  2.33427E+01  1.02293E-03  1.0E-07
  8.500E+00  5.49207E-03  6.52137E-16  2.32882E+01  1.05716E-03  1.0E-07
  8.600E+00  5.62181E-03  6.50598E-16  2.32333E+01  1.09221E-03  1.0E-07
  8.700E+00  5.75306E-03  6.49049E-16  2.31779E+01  1.12808E-03  1.0E-07
  8.800E+00  5.88581E-03  6.47487E-16  2.31222E+01  1.16480E-03  1.0E-07
  8.900E+00  6.02007E-03  6.45915E-16  2.30660E+01  1.20236E-03  1.0E-07
  9.000E+00  6.15583E-03  6.44331E-16  2.30095E+01  1.24079E-03  1.0E-07
  9.100E+00  6.29310E-03  6.42736E-16  2.29525E+01  1.28009E-03  1.0E-07
  9.200E+00  6.43187E-03  6.41131E-16  2.28952E+01  1.32028E-03  1.0E-07
  9.300E+00  6.57214E-03  6.39515E-16  2.28375E+01  1.36137E-03  1.0E-07
  9.400E+00  6.71392E-03  6.37889E-16  2.27794E+01  1.40336E-03  1.0E-07
  9.500E+00  6.85720E-03  6.36252E-16  2.27210E+01  1.44628E-03  1.0E-07
  9.600E+00  7.00198E-03  6.34606E-16  2.26622E+01  1.49013E-03  1.0E-07
  9.700E+00  7.14827E-03  6.32950E-16  2.26030E+01  1.53492E-03  1.0E-07
  9.800E+00  7.29605E-03  6.31284E-16  2.25436E+01  1.58067E-03  1.0E-07
  9.900E+00  7.44534E-03  6.29609E-16  2.24837E+01  1.62739E-03  1.0E-07
  1.000E+01  7.59612E-03  6.27925E-16  2.24236E+01  1.67509E-03  1.0E-07
  1.025E+01  7.97965E-03  6.23675E-16  2.22718E+01  1.79871E-03  1.0E-07
  1.050E+01  8.37255E-03  6.19372E-16  2.21182E+01  1.92872E-03  1.0E-07
  1.075E+01  8.77480E-03  6.15018E-16  2.19627E+01  2.06532E-03  1.0E-07
  1.100E+01  9.18641E-03  6.10617E-16  2.18055E+01  2.20869E-03  1.0E-07
  1.125E+01  9.60736E-03  6.06172E-16  2.16468E+01  2.35903E-03  1.0E-07
  1.150E+01  1.00376E-02  6.01685E-16  2.14866E+01  2.51654E-03  1.0E-07
  1.175E+01  1.04773E-02  5.97160E-16  2.13250E+01  2.68141E-03  1.0E-07
  1.200E+01  1.09262E-02  5.92599E-16  2.11621E+01  2.85383E-03  1.0E-07
  1.225E+01  1.13844E-02  5.88005E-16  2.09980E+01  3.03401E-03  1.0E-07
  1.250E+01  1.18520E-02  5.83381E-16  2.08329E+01  3.22214E-03  1.0E-07
  1.275E+01  1.23288E-02  5.78730E-16  2.06668E+01  3.41843E-03  1.0E-07
  1.300E+01  1.28150E-02  5.74054E-16  2.04999E+01  3.62306E-03  1.0E-07
  1.325E+01  1.33104E-02  5.69357E-16  2.03321E+01  3.83624E-03  1.0E-07
  1.350E+01  1.38150E-02  5.64641E-16  2.01637E+01  4.05818E-03  1.0E-07
  1.375E+01  1.43290E-02  5.59908E-16  1.99947E+01  4.28906E-03  1.0E-07
  1.400E+01  1.48521E-02  5.55161E-16  1.98252E+01  4.52909E-03  1.0E-07
  1.425E+01  1.53845E-02  5.50403E-16  1.96552E+01  4.77846E-03  1.0E-07
  1.450E+01  1.59262E-02  5.45636E-16  1.94850E+01  5.03738E-03  1.0E-07
  1.475E+01  1.64770E-02  5.40862E-16  1.93145E+01  5.30603E-03  1.0E-07
  1.500E+01  1.70371E-02  5.36084E-16  1.91439E+01  5.58462E-03  1.0E-07
  1.525E+01  1.76063E-02  5.31305E-16  1.89732E+01  5.87334E-03  1.0E-07
