 #
 # Subroutine ELSEPA. Elastic scattering of electrons and positrons
 #                    by neutral atoms and positive ions
 #
 # Projectile: electron
 # Kinetic energy = 1.90000E+04 eV = 6.98237E+02 a.u.
 #
 # Element: Hg,  Z =  80,  atomic weight = 2.00590E+02 g/mol
 #
 # Nuclear model: Fermi distribution
 #                Average radius = 6.26355E-13 cm
 #                Skin thickness = 5.46000E-14 cm
 #
 # Number of electrons = 80
 #
 # Electron density: Read from file z_080.den   
 #                   Number of data points =  763
 #                   Volume integral = 8.00000E+01
 #
 # Total elastic cross section = 5.77929E-17 cm**2 = 2.06382E+00 a0**2
 # 1st transport cross section = 1.80832E-18 cm**2 = 6.45764E-02 a0**2
 # 2nd transport cross section = 3.23309E-18 cm**2 = 1.15456E-01 a0**2
 #
 #
 # Differential cross section:                       MU=(1-COS(THETA))/2
 #
 #  THETA        MU          DCS          DCS        Sherman      error
 #  (deg)                 (cm**2/sr)   (a0**2/sr)    function
 #----------------------------------------------------------------------
  0.000E+00  0.00000E+00  8.10767E-15  2.89530E+02  0.00000E+00  1.0E-07
  1.000E-04  7.61557E-13  8.10767E-15  2.89530E+02  1.16786E-09  1.0E-07
  1.250E-04  1.18994E-12  8.10767E-15  2.89530E+02  1.45983E-09  1.0E-07
  1.500E-04  1.71346E-12  8.10767E-15  2.89530E+02  1.75179E-09  1.0E-07
  1.750E-04  2.33225E-12  8.10767E-15  2.89530E+02  2.04376E-09  1.0E-07
  2.000E-04  3.04617E-12  8.10767E-15  2.89530E+02  2.33572E-09  1.0E-07
  2.250E-04  3.85530E-12  8.10767E-15  2.89530E+02  2.62769E-09  1.0E-07
  2.500E-04  4.75964E-12  8.10767E-15  2.89530E+02  2.91965E-09  1.0E-07
  2.750E-04  5.75917E-12  8.10767E-15  2.89530E+02  3.21162E-09  1.0E-07
  3.000E-04  6.85391E-12  8.10767E-15  2.89530E+02  3.50358E-09  1.0E-07
  3.250E-04  8.04379E-12  8.10767E-15  2.89530E+02  3.79555E-09  1.0E-07
  3.500E-04  9.32893E-12  8.10767E-15  2.89530E+02  4.08751E-09  1.0E-07
  3.750E-04  1.07092E-11  8.10767E-15  2.89530E+02  4.37948E-09  1.0E-07
  4.000E-04  1.21847E-11  8.10767E-15  2.89530E+02  4.67144E-09  1.0E-07
  4.250E-04  1.37554E-11  8.10767E-15  2.89530E+02  4.96341E-09  1.0E-07
  4.500E-04  1.54213E-11  8.10767E-15  2.89530E+02  5.25537E-09  1.0E-07
  4.750E-04  1.71823E-11  8.10767E-15  2.89530E+02  5.54734E-09  1.0E-07
  5.000E-04  1.90386E-11  8.10767E-15  2.89530E+02  5.83930E-09  1.0E-07
  5.250E-04  2.09900E-11  8.10767E-15  2.89530E+02  6.13127E-09  1.0E-07
  5.500E-04  2.30367E-11  8.10767E-15  2.89530E+02  6.42323E-09  1.0E-07
  5.750E-04  2.51785E-11  8.10767E-15  2.89530E+02  6.71520E-09  1.0E-07
  6.000E-04  2.74156E-11  8.10767E-15  2.89530E+02  7.00716E-09  1.0E-07
  6.250E-04  2.97478E-11  8.10767E-15  2.89530E+02  7.29913E-09  1.0E-07
  6.500E-04  3.21752E-11  8.10767E-15  2.89530E+02  7.59109E-09  1.0E-07
  6.750E-04  3.46979E-11  8.10767E-15  2.89530E+02  7.88306E-09  1.0E-07
  7.000E-04  3.73157E-11  8.10767E-15  2.89530E+02  8.17502E-09  1.0E-07
  7.250E-04  4.00286E-11  8.10767E-15  2.89530E+02  8.46699E-09  1.0E-07
  7.500E-04  4.28368E-11  8.10767E-15  2.89530E+02  8.75895E-09  1.0E-07
  7.750E-04  4.57402E-11  8.10767E-15  2.89530E+02  9.05092E-09  1.0E-07
  8.000E-04  4.87388E-11  8.10767E-15  2.89530E+02  9.34288E-09  1.0E-07
  8.250E-04  5.18325E-11  8.10767E-15  2.89530E+02  9.63485E-09  1.0E-07
  8.500E-04  5.50215E-11  8.10767E-15  2.89530E+02  9.92681E-09  1.0E-07
  8.750E-04  5.83057E-11  8.10767E-15  2.89530E+02  1.02188E-08  1.0E-07
  9.000E-04  6.16850E-11  8.10767E-15  2.89530E+02  1.05107E-08  1.0E-07
  9.250E-04  6.51595E-11  8.10767E-15  2.89530E+02  1.08027E-08  1.0E-07
  9.500E-04  6.87293E-11  8.10767E-15  2.89530E+02  1.10947E-08  1.0E-07
  9.750E-04  7.23943E-11  8.10767E-15  2.89530E+02  1.13866E-08  1.0E-07
  1.000E-03  7.61544E-11  8.10767E-15  2.89530E+02  1.16786E-08  1.0E-07
  1.250E-03  1.18991E-10  8.10767E-15  2.89530E+02  1.45983E-08  1.0E-07
  1.500E-03  1.71347E-10  8.10767E-15  2.89530E+02  1.75179E-08  1.0E-07
  1.750E-03  2.33223E-10  8.10767E-15  2.89530E+02  2.04376E-08  1.0E-07
  2.000E-03  3.04617E-10  8.10766E-15  2.89530E+02  2.33572E-08  1.0E-07
  2.250E-03  3.85531E-10  8.10766E-15  2.89530E+02  2.62769E-08  1.0E-07
  2.500E-03  4.75965E-10  8.10766E-15  2.89530E+02  2.91965E-08  1.0E-07
  2.750E-03  5.75917E-10  8.10765E-15  2.89530E+02  3.21162E-08  1.0E-07
  3.000E-03  6.85389E-10  8.10765E-15  2.89529E+02  3.50359E-08  1.0E-07
  3.250E-03  8.04380E-10  8.10764E-15  2.89529E+02  3.79555E-08  1.0E-07
  3.500E-03  9.32891E-10  8.10764E-15  2.89529E+02  4.08752E-08  1.0E-07
  3.750E-03  1.07092E-09  8.10763E-15  2.89529E+02  4.37949E-08  1.0E-07
  4.000E-03  1.21847E-09  8.10763E-15  2.89529E+02  4.67146E-08  1.0E-07
  4.250E-03  1.37554E-09  8.10762E-15  2.89528E+02  4.96342E-08  1.0E-07
  4.500E-03  1.54213E-09  8.10761E-15  2.89528E+02  5.25539E-08  1.0E-07
  4.750E-03  1.71823E-09  8.10761E-15  2.89528E+02  5.54736E-08  1.0E-07
  5.000E-03  1.90386E-09  8.10760E-15  2.89528E+02  5.83933E-08  1.0E-07
  5.250E-03  2.09900E-09  8.10759E-15  2.89527E+02  6.13130E-08  1.0E-07
  5.500E-03  2.30367E-09  8.10758E-15  2.89527E+02  6.42327E-08  1.0E-07
  5.750E-03  2.51785E-09  8.10758E-15  2.89527E+02  6.71524E-08  1.0E-07
  6.000E-03  2.74156E-09  8.10757E-15  2.89526E+02  7.00721E-08  1.0E-07
  6.250E-03  2.97478E-09  8.10756E-15  2.89526E+02  7.29919E-08  1.0E-07
  6.500E-03  3.21752E-09  8.10755E-15  2.89526E+02  7.59116E-08  1.0E-07
  6.750E-03  3.46978E-09  8.10754E-15  2.89525E+02  7.88313E-08  1.0E-07
  7.000E-03  3.73156E-09  8.10753E-15  2.89525E+02  8.17511E-08  1.0E-07
  7.250E-03  4.00286E-09  8.10752E-15  2.89525E+02  8.46708E-08  1.0E-07
  7.500E-03  4.28368E-09  8.10751E-15  2.89524E+02  8.75905E-08  1.0E-07
  7.750E-03  4.57402E-09  8.10750E-15  2.89524E+02  9.05103E-08  1.0E-07
  8.000E-03  4.87388E-09  8.10748E-15  2.89524E+02  9.34301E-08  1.0E-07
  8.250E-03  5.18326E-09  8.10747E-15  2.89523E+02  9.63498E-08  1.0E-07
  8.500E-03  5.50215E-09  8.10746E-15  2.89523E+02  9.92696E-08  1.0E-07
  8.750E-03  5.83057E-09  8.10745E-15  2.89522E+02  1.02189E-07  1.0E-07
  9.000E-03  6.16850E-09  8.10743E-15  2.89522E+02  1.05109E-07  1.0E-07
  9.250E-03  6.51596E-09  8.10742E-15  2.89521E+02  1.08029E-07  1.0E-07
  9.500E-03  6.87293E-09  8.10741E-15  2.89521E+02  1.10949E-07  1.0E-07
  9.750E-03  7.23942E-09  8.10739E-15  2.89520E+02  1.13869E-07  1.0E-07
  1.000E-02  7.61544E-09  8.10738E-15  2.89520E+02  1.16788E-07  1.0E-07
  1.250E-02  1.18991E-08  8.10721E-15  2.89514E+02  1.45987E-07  1.0E-07
  1.500E-02  1.71347E-08  8.10700E-15  2.89506E+02  1.75187E-07  1.0E-07
  1.750E-02  2.33223E-08  8.10676E-15  2.89498E+02  2.04389E-07  1.0E-07
  2.000E-02  3.04617E-08  8.10648E-15  2.89488E+02  2.33592E-07  1.0E-07
  2.250E-02  3.85531E-08  8.10617E-15  2.89476E+02  2.62796E-07  1.0E-07
  2.500E-02  4.75965E-08  8.10581E-15  2.89464E+02  2.92003E-07  1.0E-07
  2.750E-02  5.75917E-08  8.10542E-15  2.89450E+02  3.21212E-07  1.0E-07
  3.000E-02  6.85389E-08  8.10499E-15  2.89435E+02  3.50424E-07  1.0E-07
  3.250E-02  8.04380E-08  8.10453E-15  2.89418E+02  3.79638E-07  1.0E-07
  3.500E-02  9.32891E-08  8.10402E-15  2.89400E+02  4.08856E-07  1.0E-07
  3.750E-02  1.07092E-07  8.10348E-15  2.89381E+02  4.38076E-07  1.0E-07
  4.000E-02  1.21847E-07  8.10291E-15  2.89360E+02  4.67300E-07  1.0E-07
  4.250E-02  1.37554E-07  8.10229E-15  2.89338E+02  4.96528E-07  1.0E-07
  4.500E-02  1.54213E-07  8.10164E-15  2.89315E+02  5.25759E-07  1.0E-07
  4.750E-02  1.71823E-07  8.10095E-15  2.89290E+02  5.54995E-07  1.0E-07
  5.000E-02  1.90386E-07  8.10023E-15  2.89264E+02  5.84235E-07  1.0E-07
  5.250E-02  2.09900E-07  8.09947E-15  2.89237E+02  6.13479E-07  1.0E-07
  5.500E-02  2.30367E-07  8.09867E-15  2.89209E+02  6.42729E-07  1.0E-07
  5.750E-02  2.51785E-07  8.09783E-15  2.89179E+02  6.71983E-07  1.0E-07
  6.000E-02  2.74156E-07  8.09696E-15  2.89148E+02  7.01242E-07  1.0E-07
  6.250E-02  2.97478E-07  8.09605E-15  2.89115E+02  7.30508E-07  1.0E-07
  6.500E-02  3.21752E-07  8.09510E-15  2.89081E+02  7.59778E-07  1.0E-07
  6.750E-02  3.46978E-07  8.09411E-15  2.89046E+02  7.89055E-07  1.0E-07
  7.000E-02  3.73156E-07  8.09309E-15  2.89010E+02  8.18338E-07  1.0E-07
  7.250E-02  4.00286E-07  8.09203E-15  2.88972E+02  8.47627E-07  1.0E-07
  7.500E-02  4.28368E-07  8.09094E-15  2.88933E+02  8.76923E-07  1.0E-07
  7.750E-02  4.57402E-07  8.08980E-15  2.88892E+02  9.06226E-07  1.0E-07
  8.000E-02  4.87388E-07  8.08864E-15  2.88850E+02  9.35536E-07  1.0E-07
  8.250E-02  5.18325E-07  8.08743E-15  2.88807E+02  9.64853E-07  1.0E-07
  8.500E-02  5.50215E-07  8.08619E-15  2.88763E+02  9.94177E-07  1.0E-07
  8.750E-02  5.83057E-07  8.08491E-15  2.88717E+02  1.02351E-06  1.0E-07
  9.000E-02  6.16850E-07  8.08359E-15  2.88670E+02  1.05285E-06  1.0E-07
  9.250E-02  6.51596E-07  8.08224E-15  2.88622E+02  1.08220E-06  1.0E-07
  9.500E-02  6.87293E-07  8.08085E-15  2.88572E+02  1.11156E-06  1.0E-07
  9.750E-02  7.23942E-07  8.07942E-15  2.88521E+02  1.14092E-06  1.0E-07
  1.000E-01  7.61543E-07  8.07796E-15  2.88469E+02  1.17030E-06  1.0E-07
  1.250E-01  1.18991E-06  8.06132E-15  2.87875E+02  1.46458E-06  1.0E-07
  1.500E-01  1.71347E-06  8.04107E-15  2.87152E+02  1.76001E-06  1.0E-07
  1.750E-01  2.33223E-06  8.01724E-15  2.86301E+02  2.05681E-06  1.0E-07
  2.000E-01  3.04617E-06  7.98989E-15  2.85324E+02  2.35520E-06  1.0E-07
  2.250E-01  3.85531E-06  7.95907E-15  2.84224E+02  2.65542E-06  1.0E-07
  2.500E-01  4.75964E-06  7.92487E-15  2.83002E+02  2.95769E-06  1.0E-07
  2.750E-01  5.75916E-06  7.88735E-15  2.81662E+02  3.26223E-06  1.0E-07
  3.000E-01  6.85388E-06  7.84660E-15  2.80207E+02  3.56928E-06  1.0E-07
  3.250E-01  8.04378E-06  7.80269E-15  2.78639E+02  3.87905E-06  1.0E-07
  3.500E-01  9.32888E-06  7.75573E-15  2.76962E+02  4.19178E-06  1.0E-07
  3.750E-01  1.07092E-05  7.70581E-15  2.75180E+02  4.50768E-06  1.0E-07
  4.000E-01  1.21846E-05  7.65304E-15  2.73295E+02  4.82699E-06  1.0E-07
  4.250E-01  1.37553E-05  7.59752E-15  2.71312E+02  5.14991E-06  1.0E-07
  4.500E-01  1.54212E-05  7.53937E-15  2.69236E+02  5.47669E-06  1.0E-07
  4.750E-01  1.71822E-05  7.47869E-15  2.67069E+02  5.80753E-06  1.0E-07
  5.000E-01  1.90385E-05  7.41561E-15  2.64816E+02  6.14265E-06  1.0E-07
  5.250E-01  2.09899E-05  7.35024E-15  2.62482E+02  6.48228E-06  1.0E-07
  5.500E-01  2.30365E-05  7.28270E-15  2.60070E+02  6.82664E-06  1.0E-07
  5.750E-01  2.51783E-05  7.21313E-15  2.57586E+02  7.17594E-06  1.0E-07
  6.000E-01  2.74153E-05  7.14164E-15  2.55032E+02  7.53040E-06  1.0E-07
  6.250E-01  2.97475E-05  7.06835E-15  2.52415E+02  7.89023E-06  1.0E-07
  6.500E-01  3.21749E-05  6.99339E-15  2.49739E+02  8.25565E-06  1.0E-07
  6.750E-01  3.46974E-05  6.91689E-15  2.47007E+02  8.62687E-06  1.0E-07
  7.000E-01  3.73152E-05  6.83897E-15  2.44224E+02  9.00410E-06  1.0E-07
  7.250E-01  4.00281E-05  6.75974E-15  2.41395E+02  9.38755E-06  1.0E-07
  7.500E-01  4.28362E-05  6.67934E-15  2.38523E+02  9.77744E-06  1.0E-07
  7.750E-01  4.57395E-05  6.59787E-15  2.35614E+02  1.01740E-05  1.0E-07
  8.000E-01  4.87380E-05  6.51546E-15  2.32671E+02  1.05773E-05  1.0E-07
  8.250E-01  5.18317E-05  6.43222E-15  2.29699E+02  1.09878E-05  1.0E-07
  8.500E-01  5.50205E-05  6.34825E-15  2.26700E+02  1.14054E-05  1.0E-07
  8.750E-01  5.83045E-05  6.26368E-15  2.23680E+02  1.18306E-05  1.0E-07
  9.000E-01  6.16838E-05  6.17861E-15  2.20642E+02  1.22634E-05  1.0E-07
  9.250E-01  6.51582E-05  6.09313E-15  2.17589E+02  1.27040E-05  1.0E-07
  9.500E-01  6.87277E-05  6.00734E-15  2.14526E+02  1.31527E-05  1.0E-07
  9.750E-01  7.23925E-05  5.92135E-15  2.11455E+02  1.36097E-05  1.0E-07
  1.000E+00  7.61524E-05  5.83524E-15  2.08380E+02  1.40751E-05  1.0E-07
  1.100E+00  9.21439E-05  5.49135E-15  1.96100E+02  1.60250E-05  1.0E-07
  1.200E+00  1.09658E-04  5.15194E-15  1.83979E+02  1.81251E-05  1.0E-07
  1.300E+00  1.28695E-04  4.82106E-15  1.72163E+02  2.03871E-05  1.0E-07
  1.400E+00  1.49255E-04  4.50179E-15  1.60762E+02  2.28224E-05  1.0E-07
  1.500E+00  1.71338E-04  4.19638E-15  1.49856E+02  2.54417E-05  1.0E-07
  1.600E+00  1.94942E-04  3.90633E-15  1.39498E+02  2.82557E-05  1.0E-07
  1.700E+00  2.20070E-04  3.63252E-15  1.29719E+02  3.12744E-05  1.0E-07
  1.800E+00  2.46720E-04  3.37529E-15  1.20534E+02  3.45077E-05  1.0E-07
  1.900E+00  2.74892E-04  3.13464E-15  1.11940E+02  3.79651E-05  1.0E-07
  2.000E+00  3.04586E-04  2.91022E-15  1.03926E+02  4.16560E-05  1.0E-07
  2.100E+00  3.35803E-04  2.70150E-15  9.64724E+01  4.55892E-05  1.0E-07
  2.200E+00  3.68542E-04  2.50778E-15  8.95545E+01  4.97737E-05  1.0E-07
  2.300E+00  4.02802E-04  2.32827E-15  8.31441E+01  5.42177E-05  1.0E-07
  2.400E+00  4.38585E-04  2.16214E-15  7.72115E+01  5.89296E-05  1.0E-07
  2.500E+00  4.75889E-04  2.00853E-15  7.17260E+01  6.39173E-05  1.0E-07
  2.600E+00  5.14715E-04  1.86659E-15  6.66572E+01  6.91882E-05  1.0E-07
  2.700E+00  5.55063E-04  1.73549E-15  6.19754E+01  7.47496E-05  1.0E-07
  2.800E+00  5.96931E-04  1.61443E-15  5.76522E+01  8.06083E-05  1.0E-07
  2.900E+00  6.40321E-04  1.50265E-15  5.36604E+01  8.67706E-05  1.0E-07
  3.000E+00  6.85233E-04  1.39943E-15  4.99747E+01  9.32422E-05  1.0E-07
  3.100E+00  7.31665E-04  1.30412E-15  4.65711E+01  1.00028E-04  1.0E-07
  3.200E+00  7.79618E-04  1.21609E-15  4.34274E+01  1.07133E-04  1.0E-07
  3.300E+00  8.29092E-04  1.13476E-15  4.05230E+01  1.14560E-04  1.0E-07
  3.400E+00  8.80086E-04  1.05959E-15  3.78388E+01  1.22313E-04  1.0E-07
  3.500E+00  9.32601E-04  9.90104E-16  3.53573E+01  1.30394E-04  1.0E-07
  3.600E+00  9.86636E-04  9.25835E-16  3.30622E+01  1.38802E-04  1.0E-07
  3.700E+00  1.04219E-03  8.66370E-16  3.09386E+01  1.47539E-04  1.0E-07
  3.800E+00  1.09927E-03  8.11325E-16  2.89729E+01  1.56604E-04  1.0E-07
  3.900E+00  1.15786E-03  7.60348E-16  2.71525E+01  1.65993E-04  1.0E-07
  4.000E+00  1.21797E-03  7.13116E-16  2.54658E+01  1.75704E-04  1.0E-07
  4.100E+00  1.27961E-03  6.69331E-16  2.39022E+01  1.85732E-04  1.0E-07
  4.200E+00  1.34276E-03  6.28721E-16  2.24521E+01  1.96071E-04  1.0E-07
  4.300E+00  1.40743E-03  5.91037E-16  2.11063E+01  2.06713E-04  1.0E-07
  4.400E+00  1.47362E-03  5.56048E-16  1.98568E+01  2.17651E-04  1.0E-07
  4.500E+00  1.54133E-03  5.23544E-16  1.86961E+01  2.28874E-04  1.0E-07
  4.600E+00  1.61056E-03  4.93331E-16  1.76172E+01  2.40372E-04  1.0E-07
  4.700E+00  1.68131E-03  4.65231E-16  1.66137E+01  2.52131E-04  1.0E-07
  4.800E+00  1.75357E-03  4.39082E-16  1.56799E+01  2.64140E-04  1.0E-07
  4.900E+00  1.82735E-03  4.14733E-16  1.48104E+01  2.76382E-04  1.0E-07
  5.000E+00  1.90265E-03  3.92046E-16  1.40002E+01  2.88842E-04  1.0E-07
  5.100E+00  1.97947E-03  3.70895E-16  1.32449E+01  3.01503E-04  1.0E-07
  5.200E+00  2.05780E-03  3.51162E-16  1.25402E+01  3.14348E-04  1.0E-07
  5.300E+00  2.13765E-03  3.32741E-16  1.18824E+01  3.27357E-04  1.0E-07
  5.400E+00  2.21902E-03  3.15534E-16  1.12679E+01  3.40512E-04  1.0E-07
  5.500E+00  2.30190E-03  2.99448E-16  1.06935E+01  3.53792E-04  1.0E-07
  5.600E+00  2.38630E-03  2.84402E-16  1.01562E+01  3.67177E-04  1.0E-07
  5.700E+00  2.47222E-03  2.70317E-16  9.65318E+00  3.80645E-04  1.0E-07
  5.800E+00  2.55965E-03  2.57123E-16  9.18201E+00  3.94174E-04  1.0E-07
  5.900E+00  2.64859E-03  2.44754E-16  8.74033E+00  4.07742E-04  1.0E-07
  6.000E+00  2.73905E-03  2.33151E-16  8.32597E+00  4.21328E-04  1.0E-07
  6.100E+00  2.83103E-03  2.22258E-16  7.93698E+00  4.34909E-04  1.0E-07
  6.200E+00  2.92452E-03  2.12024E-16  7.57151E+00  4.48461E-04  1.0E-07
  6.300E+00  3.01952E-03  2.02402E-16  7.22789E+00  4.61964E-04  1.0E-07
  6.400E+00  3.11604E-03  1.93348E-16  6.90457E+00  4.75393E-04  1.0E-07
  6.500E+00  3.21407E-03  1.84822E-16  6.60011E+00  4.88728E-04  1.0E-07
  6.600E+00  3.31362E-03  1.76788E-16  6.31320E+00  5.01945E-04  1.0E-07
  6.700E+00  3.41468E-03  1.69210E-16  6.04261E+00  5.15024E-04  1.0E-07
  6.800E+00  3.51725E-03  1.62059E-16  5.78722E+00  5.27941E-04  1.0E-07
  6.900E+00  3.62133E-03  1.55304E-16  5.54600E+00  5.40676E-04  1.0E-07
  7.000E+00  3.72692E-03  1.48918E-16  5.31798E+00  5.53207E-04  1.0E-07
  7.100E+00  3.83403E-03  1.42878E-16  5.10227E+00  5.65514E-04  1.0E-07
  7.200E+00  3.94265E-03  1.37160E-16  4.89806E+00  5.77575E-04  1.0E-07
  7.300E+00  4.05278E-03  1.31742E-16  4.70458E+00  5.89372E-04  1.0E-07
  7.400E+00  4.16442E-03  1.26605E-16  4.52114E+00  6.00882E-04  1.0E-07
  7.500E+00  4.27757E-03  1.21731E-16  4.34710E+00  6.12088E-04  1.0E-07
  7.600E+00  4.39223E-03  1.17103E-16  4.18184E+00  6.22969E-04  1.0E-07
  7.700E+00  4.50840E-03  1.12706E-16  4.02481E+00  6.33505E-04  1.0E-07
  7.800E+00  4.62608E-03  1.08525E-16  3.87550E+00  6.43679E-04  1.0E-07
  7.900E+00  4.74527E-03  1.04547E-16  3.73344E+00  6.53470E-04  1.0E-07
  8.000E+00  4.86597E-03  1.00759E-16  3.59817E+00  6.62859E-04  1.0E-07
  8.100E+00  4.98817E-03  9.71501E-17  3.46929E+00  6.71829E-04  1.0E-07
  8.200E+00  5.11188E-03  9.37094E-17  3.34642E+00  6.80361E-04  1.0E-07
  8.300E+00  5.23711E-03  9.04270E-17  3.22921E+00  6.88435E-04  1.0E-07
  8.400E+00  5.36383E-03  8.72938E-17  3.11732E+00  6.96033E-04  1.0E-07
  8.500E+00  5.49207E-03  8.43011E-17  3.01045E+00  7.03137E-04  1.0E-07
  8.600E+00  5.62181E-03  8.14411E-17  2.90831E+00  7.09727E-04  1.0E-07
  8.700E+00  5.75306E-03  7.87063E-17  2.81065E+00  7.15786E-04  1.0E-07
  8.800E+00  5.88581E-03  7.60897E-17  2.71721E+00  7.21294E-04  1.0E-07
  8.900E+00  6.02007E-03  7.35851E-17  2.62777E+00  7.26232E-04  1.0E-07
  9.000E+00  6.15583E-03  7.11863E-17  2.54211E+00  7.30582E-04  1.0E-07
  9.100E+00  6.29310E-03  6.88878E-17  2.46003E+00  7.34324E-04  1.0E-07
  9.200E+00  6.43187E-03  6.66843E-17  2.38134E+00  7.37439E-04  1.0E-07
  9.300E+00  6.57214E-03  6.45709E-17  2.30587E+00  7.39908E-04  1.0E-07
  9.400E+00  6.71392E-03  6.25431E-17  2.23345E+00  7.41712E-04  1.0E-07
  9.500E+00  6.85720E-03  6.05965E-17  2.16394E+00  7.42830E-04  1.0E-07
  9.600E+00  7.00198E-03  5.87272E-17  2.09719E+00  7.43243E-04  1.0E-07
  9.700E+00  7.14827E-03  5.69314E-17  2.03306E+00  7.42931E-04  1.0E-07
  9.800E+00  7.29605E-03  5.52054E-17  1.97142E+00  7.41875E-04  1.0E-07
  9.900E+00  7.44534E-03  5.35461E-17  1.91217E+00  7.40054E-04  1.0E-07
  1.000E+01  7.59612E-03  5.19503E-17  1.85518E+00  7.37449E-04  1.0E-07
  1.025E+01  7.97965E-03  4.82194E-17  1.72195E+00  7.27373E-04  1.0E-07
  1.050E+01  8.37255E-03  4.48257E-17  1.60075E+00  7.11957E-04  1.0E-07
  1.075E+01  8.77480E-03  4.17330E-17  1.49031E+00  6.90893E-04  1.0E-07
  1.100E+01  9.18641E-03  3.89102E-17  1.38951E+00  6.63883E-04  1.0E-07
  1.125E+01  9.60736E-03  3.63297E-17  1.29736E+00  6.30634E-04  1.0E-07
  1.150E+01  1.00376E-02  3.39675E-17  1.21300E+00  5.90875E-04  1.0E-07
  1.175E+01  1.04773E-02  3.18022E-17  1.13568E+00  5.44350E-04  1.0E-07
  1.200E+01  1.09262E-02  2.98150E-17  1.06471E+00  4.90828E-04  1.0E-07
  1.225E+01  1.13844E-02  2.79890E-17  9.99506E-01  4.30106E-04  1.0E-07
  1.250E+01  1.18520E-02  2.63093E-17  9.39523E-01  3.62013E-04  1.0E-07
  1.275E+01  1.23288E-02  2.47624E-17  8.84283E-01  2.86412E-04  1.0E-07
  1.300E+01  1.28150E-02  2.33363E-17  8.33354E-01  2.03203E-04  1.0E-07
  1.325E+01  1.33104E-02  2.20200E-17  7.86348E-01  1.12326E-04  1.0E-07
  1.350E+01  1.38150E-02  2.08037E-17  7.42914E-01  1.37603E-05  1.0E-07
  1.375E+01  1.43290E-02  1.96786E-17  7.02737E-01 -9.24733E-05  1.0E-07
  1.400E+01  1.48521E-02  1.86367E-17  6.65529E-01 -2.06313E-04  1.0E-07
  1.425E+01  1.53845E-02  1.76707E-17  6.31031E-01 -3.27656E-04  1.0E-07
  1.450E+01  1.59262E-02  1.67739E-17  5.99007E-01 -4.56363E-04  1.0E-07
  1.475E+01  1.64770E-02  1.59405E-17  5.69245E-01 -5.92256E-04  1.0E-07
  1.500E+01  1.70371E-02  1.51650E-17  5.41550E-01 -7.35122E-04  1.0E-07
  1.525E+01  1.76063E-02  1.44424E-17  5.15747E-01 -8.84719E-04  1.0E-07
  1.550E+01  1.81848E-02  1.37683E-17  4.91674E-01 -1.04077E-03  1.0E-07
