 #  Scattering field.
 #  All quantities in atomic units (a.u.), unless otherwise indicated.
 #  Z =  80, NELEC =  80,   projectile: electron
 #  Kinetic energy = 9.18733E+02 a.u. = 2.50000E+04 eV
 #
 #   i       r           r*V         r*Vst        r*Vex       r*Vpol       r*Wabs        rho_e
 #------------------------------------------------------------------------------------------------
     1  0.00000E+00 -0.00000E+00 -0.00000E+00  0.00000E+00  0.00000E+00  0.00000E+00  2.43655E+06
     2  2.73270E-07 -2.63992E-01 -2.63992E-01  0.00000E+00  0.00000E+00  0.00000E+00  2.43655E+06
     3  5.52859E-07 -5.34086E-01 -5.34086E-01  0.00000E+00  0.00000E+00  0.00000E+00  2.43052E+06
     4  8.38903E-07 -8.10409E-01 -8.10409E-01  0.00000E+00  0.00000E+00  0.00000E+00  2.42456E+06
     5  1.13155E-06 -1.09310E+00 -1.09310E+00  0.00000E+00  0.00000E+00  0.00000E+00  2.41869E+06
     6  1.43096E-06 -1.38231E+00 -1.38231E+00  0.00000E+00  0.00000E+00  0.00000E+00  2.41291E+06
     7  1.73727E-06 -1.67818E+00 -1.67818E+00  0.00000E+00  0.00000E+00  0.00000E+00  2.40723E+06
     8  2.05066E-06 -1.98085E+00 -1.98085E+00  0.00000E+00  0.00000E+00  0.00000E+00  2.40166E+06
     9  2.37129E-06 -2.29049E+00 -2.29049E+00  0.00000E+00  0.00000E+00  0.00000E+00  2.39619E+06
    10  2.69932E-06 -2.60724E+00 -2.60724E+00  0.00000E+00  0.00000E+00  0.00000E+00  2.39084E+06
    11  3.03492E-06 -2.93126E+00 -2.93126E+00  0.00000E+00  0.00000E+00  0.00000E+00  2.38562E+06
    12  3.37827E-06 -3.26271E+00 -3.26271E+00  0.00000E+00  0.00000E+00  0.00000E+00  2.38053E+06
    13  3.72955E-06 -3.60177E+00 -3.60177E+00  0.00000E+00  0.00000E+00  0.00000E+00  2.37558E+06
    14  4.08893E-06 -3.94858E+00 -3.94858E+00  0.00000E+00  0.00000E+00  0.00000E+00  2.37078E+06
    15  4.45662E-06 -4.30333E+00 -4.30333E+00  0.00000E+00  0.00000E+00  0.00000E+00  2.36613E+06
    16  4.83279E-06 -4.66619E+00 -4.66619E+00  0.00000E+00  0.00000E+00  0.00000E+00  2.36164E+06
    17  5.21765E-06 -5.03733E+00 -5.03733E+00  0.00000E+00  0.00000E+00  0.00000E+00  2.35732E+06
    18  5.61140E-06 -5.41693E+00 -5.41693E+00  0.00000E+00  0.00000E+00  0.00000E+00  2.35317E+06
    19  6.01423E-06 -5.80517E+00 -5.80517E+00  0.00000E+00  0.00000E+00  0.00000E+00  2.34919E+06
    20  6.42637E-06 -6.20224E+00 -6.20224E+00  0.00000E+00  0.00000E+00  0.00000E+00  2.34540E+06
    21  6.84802E-06 -6.60833E+00 -6.60833E+00  0.00000E+00  0.00000E+00  0.00000E+00  2.34180E+06
    22  7.27941E-06 -7.02362E+00 -7.02362E+00  0.00000E+00  0.00000E+00  0.00000E+00  2.33840E+06
    23  7.72076E-06 -7.44831E+00 -7.44831E+00  0.00000E+00  0.00000E+00  0.00000E+00  2.33519E+06
    24  8.17229E-06 -7.88260E+00 -7.88260E+00  0.00000E+00  0.00000E+00  0.00000E+00  2.33218E+06
    25  8.63426E-06 -8.32668E+00 -8.32668E+00  0.00000E+00  0.00000E+00  0.00000E+00  2.32937E+06
    26  9.10688E-06 -8.78076E+00 -8.78076E+00  0.00000E+00  0.00000E+00  0.00000E+00  2.32677E+06
    27  9.59042E-06 -9.24504E+00 -9.24504E+00  0.00000E+00  0.00000E+00  0.00000E+00  2.32437E+06
    28  1.00851E-05 -9.71973E+00 -9.71973E+00  0.00000E+00  0.00000E+00  0.00000E+00  2.32218E+06
    29  1.05913E-05 -1.02050E+01 -1.02050E+01  0.00000E+00  0.00000E+00  0.00000E+00  2.32019E+06
    30  1.11091E-05 -1.07012E+01 -1.07012E+01  0.00000E+00  0.00000E+00  0.00000E+00  2.31839E+06
    31  1.16388E-05 -1.12083E+01 -1.12083E+01  0.00000E+00  0.00000E+00  0.00000E+00  2.31679E+06
    32  1.21808E-05 -1.17267E+01 -1.17267E+01  0.00000E+00  0.00000E+00  0.00000E+00  2.31537E+06
    33  1.27353E-05 -1.22566E+01 -1.22566E+01  0.00000E+00  0.00000E+00  0.00000E+00  2.31413E+06
    34  1.33027E-05 -1.27982E+01 -1.27982E+01  0.00000E+00  0.00000E+00  0.00000E+00  2.31305E+06
    35  1.38831E-05 -1.33517E+01 -1.33517E+01  0.00000E+00  0.00000E+00  0.00000E+00  2.31212E+06
    36  1.44769E-05 -1.39173E+01 -1.39173E+01  0.00000E+00  0.00000E+00  0.00000E+00  2.31131E+06
    37  1.50844E-05 -1.44953E+01 -1.44953E+01  0.00000E+00  0.00000E+00  0.00000E+00  2.31062E+06
    38  1.57059E-05 -1.50858E+01 -1.50858E+01  0.00000E+00  0.00000E+00  0.00000E+00  2.31000E+06
    39  1.63418E-05 -1.56891E+01 -1.56891E+01  0.00000E+00  0.00000E+00  0.00000E+00  2.30944E+06
    40  1.69924E-05 -1.63055E+01 -1.63055E+01  0.00000E+00  0.00000E+00  0.00000E+00  2.30890E+06
    41  1.76580E-05 -1.69350E+01 -1.69350E+01  0.00000E+00  0.00000E+00  0.00000E+00  2.30833E+06
    42  1.83390E-05 -1.75780E+01 -1.75780E+01  0.00000E+00  0.00000E+00  0.00000E+00  2.30773E+06
    43  1.90357E-05 -1.82347E+01 -1.82347E+01  0.00000E+00  0.00000E+00  0.00000E+00  2.30709E+06
    44  1.97485E-05 -1.89052E+01 -1.89052E+01  0.00000E+00  0.00000E+00  0.00000E+00  2.30642E+06
    45  2.04777E-05 -1.95898E+01 -1.95898E+01  0.00000E+00  0.00000E+00  0.00000E+00  2.30570E+06
    46  2.12238E-05 -2.02887E+01 -2.02887E+01  0.00000E+00  0.00000E+00  0.00000E+00  2.30494E+06
    47  2.19871E-05 -2.10021E+01 -2.10021E+01  0.00000E+00  0.00000E+00  0.00000E+00  2.30414E+06
    48  2.27680E-05 -2.17302E+01 -2.17302E+01  0.00000E+00  0.00000E+00  0.00000E+00  2.30329E+06
    49  2.35669E-05 -2.24732E+01 -2.24732E+01  0.00000E+00  0.00000E+00  0.00000E+00  2.30239E+06
    50  2.43843E-05 -2.32312E+01 -2.32312E+01  0.00000E+00  0.00000E+00  0.00000E+00  2.30144E+06
    51  2.52206E-05 -2.40044E+01 -2.40044E+01  0.00000E+00  0.00000E+00  0.00000E+00  2.30043E+06
    52  2.60762E-05 -2.47931E+01 -2.47931E+01  0.00000E+00  0.00000E+00  0.00000E+00  2.29937E+06
    53  2.69515E-05 -2.55972E+01 -2.55972E+01  0.00000E+00  0.00000E+00  0.00000E+00  2.29825E+06
    54  2.78470E-05 -2.64171E+01 -2.64171E+01  0.00000E+00  0.00000E+00  0.00000E+00  2.29706E+06
    55  2.87632E-05 -2.72528E+01 -2.72528E+01  0.00000E+00  0.00000E+00  0.00000E+00  2.29581E+06
    56  2.97006E-05 -2.81044E+01 -2.81044E+01  0.00000E+00  0.00000E+00  0.00000E+00  2.29449E+06
    57  3.06596E-05 -2.89721E+01 -2.89721E+01  0.00000E+00  0.00000E+00  0.00000E+00  2.29310E+06
    58  3.16408E-05 -2.98558E+01 -2.98558E+01  0.00000E+00  0.00000E+00  0.00000E+00  2.29164E+06
    59  3.26446E-05 -3.07558E+01 -3.07558E+01  0.00000E+00  0.00000E+00  0.00000E+00  2.29010E+06
    60  3.36715E-05 -3.16719E+01 -3.16719E+01  0.00000E+00  0.00000E+00  0.00000E+00  2.28847E+06
    61  3.47222E-05 -3.26042E+01 -3.26042E+01  0.00000E+00  0.00000E+00  0.00000E+00  2.28676E+06
    62  3.57972E-05 -3.35527E+01 -3.35527E+01  0.00000E+00  0.00000E+00  0.00000E+00  2.28496E+06
    63  3.68969E-05 -3.45173E+01 -3.45173E+01  0.00000E+00  0.00000E+00  0.00000E+00  2.28307E+06
    64  3.80221E-05 -3.54980E+01 -3.54980E+01  0.00000E+00  0.00000E+00  0.00000E+00  2.28108E+06
    65  3.91732E-05 -3.64946E+01 -3.64946E+01  0.00000E+00  0.00000E+00  0.00000E+00  2.27899E+06
    66  4.03510E-05 -3.75070E+01 -3.75070E+01  0.00000E+00  0.00000E+00  0.00000E+00  2.27680E+06
    67  4.15559E-05 -3.85350E+01 -3.85350E+01  0.00000E+00  0.00000E+00  0.00000E+00  2.27449E+06
    68  4.27886E-05 -3.95783E+01 -3.95783E+01  0.00000E+00  0.00000E+00  0.00000E+00  2.27207E+06
    69  4.40498E-05 -4.06366E+01 -4.06366E+01  0.00000E+00  0.00000E+00  0.00000E+00  2.26952E+06
    70  4.53401E-05 -4.17097E+01 -4.17097E+01  0.00000E+00  0.00000E+00  0.00000E+00  2.26686E+06
    71  4.66602E-05 -4.27970E+01 -4.27970E+01  0.00000E+00  0.00000E+00  0.00000E+00  2.26406E+06
    72  4.80107E-05 -4.38980E+01 -4.38980E+01  0.00000E+00  0.00000E+00  0.00000E+00  2.26113E+06
    73  4.93925E-05 -4.50123E+01 -4.50123E+01  0.00000E+00  0.00000E+00  0.00000E+00  2.25805E+06
    74  5.08061E-05 -4.61392E+01 -4.61392E+01  0.00000E+00  0.00000E+00  0.00000E+00  2.25484E+06
    75  5.22524E-05 -4.72780E+01 -4.72780E+01  0.00000E+00  0.00000E+00  0.00000E+00  2.25147E+06
    76  5.37321E-05 -4.84279E+01 -4.84279E+01  0.00000E+00  0.00000E+00  0.00000E+00  2.24794E+06
    77  5.52459E-05 -4.95879E+01 -4.95879E+01  0.00000E+00  0.00000E+00  0.00000E+00  2.24425E+06
    78  5.67947E-05 -5.07572E+01 -5.07572E+01  0.00000E+00  0.00000E+00  0.00000E+00  2.24039E+06
    79  5.83793E-05 -5.19345E+01 -5.19345E+01  0.00000E+00  0.00000E+00  0.00000E+00  2.23636E+06
    80  6.00004E-05 -5.31186E+01 -5.31186E+01  0.00000E+00  0.00000E+00  0.00000E+00  2.23215E+06
    81  6.16590E-05 -5.43081E+01 -5.43081E+01  0.00000E+00  0.00000E+00  0.00000E+00  2.22775E+06
    82  6.33559E-05 -5.55016E+01 -5.55016E+01  0.00000E+00  0.00000E+00  0.00000E+00  2.22315E+06
    83  6.50919E-05 -5.66973E+01 -5.66973E+01  0.00000E+00  0.00000E+00  0.00000E+00  2.21836E+06
    84  6.68680E-05 -5.78935E+01 -5.78935E+01  0.00000E+00  0.00000E+00  0.00000E+00  2.21336E+06
    85  6.86852E-05 -5.90881E+01 -5.90881E+01  0.00000E+00  0.00000E+00  0.00000E+00  2.20816E+06
    86  7.05442E-05 -6.02789E+01 -6.02789E+01  0.00000E+00  0.00000E+00  0.00000E+00  2.20273E+06
    87  7.24462E-05 -6.14635E+01 -6.14635E+01  0.00000E+00  0.00000E+00  0.00000E+00  2.19708E+06
    88  7.43922E-05 -6.26394E+01 -6.26394E+01  0.00000E+00  0.00000E+00  0.00000E+00  2.19120E+06
    89  7.63830E-05 -6.38038E+01 -6.38038E+01  0.00000E+00  0.00000E+00  0.00000E+00  2.18509E+06
    90  7.84198E-05 -6.49535E+01 -6.49535E+01  0.00000E+00  0.00000E+00  0.00000E+00  2.17874E+06
    91  8.05036E-05 -6.60854E+01 -6.60854E+01  0.00000E+00  0.00000E+00  0.00000E+00  2.17214E+06
    92  8.26356E-05 -6.71959E+01 -6.71959E+01  0.00000E+00  0.00000E+00  0.00000E+00  2.16530E+06
    93  8.48167E-05 -6.82813E+01 -6.82813E+01  0.00000E+00  0.00000E+00  0.00000E+00  2.15819E+06
    94  8.70483E-05 -6.93377E+01 -6.93377E+01  0.00000E+00  0.00000E+00  0.00000E+00  2.15083E+06
    95  8.93313E-05 -7.03608E+01 -7.03608E+01  0.00000E+00  0.00000E+00  0.00000E+00  2.14321E+06
    96  9.16671E-05 -7.13464E+01 -7.13464E+01  0.00000E+00  0.00000E+00  0.00000E+00  2.13532E+06
    97  9.40568E-05 -7.22899E+01 -7.22899E+01  0.00000E+00  0.00000E+00  0.00000E+00  2.12716E+06
    98  9.65016E-05 -7.31868E+01 -7.31868E+01  0.00000E+00  0.00000E+00  0.00000E+00  2.11874E+06
    99  9.90029E-05 -7.40328E+01 -7.40328E+01  0.00000E+00  0.00000E+00  0.00000E+00  2.11004E+06
   100  1.01562E-04 -7.48235E+01 -7.48235E+01  0.00000E+00  0.00000E+00  0.00000E+00  2.10106E+06
   101  1.04180E-04 -7.55551E+01 -7.55551E+01  0.00000E+00  0.00000E+00  0.00000E+00  2.09182E+06
   102  1.06859E-04 -7.62242E+01 -7.62242E+01  0.00000E+00  0.00000E+00  0.00000E+00  2.08231E+06
   103  1.09599E-04 -7.68284E+01 -7.68284E+01  0.00000E+00  0.00000E+00  0.00000E+00  2.07252E+06
   104  1.12403E-04 -7.73664E+01 -7.73664E+01  0.00000E+00  0.00000E+00  0.00000E+00  2.06248E+06
   105  1.15271E-04 -7.78381E+01 -7.78381E+01  0.00000E+00  0.00000E+00  0.00000E+00  2.05217E+06
   106  1.18206E-04 -7.82449E+01 -7.82449E+01  0.00000E+00  0.00000E+00  0.00000E+00  2.04160E+06
   107  1.21208E-04 -7.85897E+01 -7.85897E+01  0.00000E+00  0.00000E+00  0.00000E+00  2.03079E+06
   108  1.24280E-04 -7.88768E+01 -7.88768E+01  0.00000E+00  0.00000E+00  0.00000E+00  2.01973E+06
   109  1.27423E-04 -7.91118E+01 -7.91118E+01  0.00000E+00  0.00000E+00  0.00000E+00  2.00845E+06
   110  1.30638E-04 -7.93007E+01 -7.93007E+01  0.00000E+00  0.00000E+00  0.00000E+00  1.99693E+06
   111  1.33927E-04 -7.94500E+01 -7.94500E+01  0.00000E+00  0.00000E+00  0.00000E+00  1.98521E+06
   112  1.37293E-04 -7.95661E+01 -7.95661E+01  0.00000E+00  0.00000E+00  0.00000E+00  1.97328E+06
   113  1.40736E-04 -7.96550E+01 -7.96550E+01  0.00000E+00  0.00000E+00  0.00000E+00  1.96116E+06
   114  1.44258E-04 -7.97220E+01 -7.97220E+01  0.00000E+00  0.00000E+00  0.00000E+00  1.94885E+06
   115  1.47862E-04 -7.97718E+01 -7.97718E+01  0.00000E+00  0.00000E+00  0.00000E+00  1.93638E+06
   116  1.51549E-04 -7.98081E+01 -7.98081E+01  0.00000E+00  0.00000E+00  0.00000E+00  1.92375E+06
   117  1.55321E-04 -7.98341E+01 -7.98341E+01  0.00000E+00  0.00000E+00  0.00000E+00  1.91097E+06
   118  1.59181E-04 -7.98523E+01 -7.98523E+01  0.00000E+00  0.00000E+00  0.00000E+00  1.89805E+06
   119  1.63129E-04 -7.98647E+01 -7.98647E+01  0.00000E+00  0.00000E+00  0.00000E+00  1.88500E+06
   120  1.67169E-04 -7.98727E+01 -7.98727E+01  0.00000E+00  0.00000E+00  0.00000E+00  1.87184E+06
   121  1.71302E-04 -7.98776E+01 -7.98776E+01  0.00000E+00  0.00000E+00  0.00000E+00  1.85858E+06
   122  1.75530E-04 -7.98802E+01 -7.98802E+01  0.00000E+00  0.00000E+00  0.00000E+00  1.84521E+06
   123  1.79856E-04 -7.98812E+01 -7.98812E+01  0.00000E+00  0.00000E+00  0.00000E+00  1.83176E+06
   124  1.84282E-04 -7.98809E+01 -7.98809E+01  0.00000E+00  0.00000E+00  0.00000E+00  1.81823E+06
   125  1.88809E-04 -7.98798E+01 -7.98798E+01  0.00000E+00  0.00000E+00  0.00000E+00  1.80464E+06
   126  1.93442E-04 -7.98781E+01 -7.98781E+01  0.00000E+00  0.00000E+00  0.00000E+00  1.79098E+06
   127  1.98181E-04 -7.98759E+01 -7.98759E+01  0.00000E+00  0.00000E+00  0.00000E+00  1.77726E+06
   128  2.03030E-04 -7.98734E+01 -7.98734E+01  0.00000E+00  0.00000E+00  0.00000E+00  1.76350E+06
   129  2.07991E-04 -7.98706E+01 -7.98706E+01  0.00000E+00  0.00000E+00  0.00000E+00  1.74970E+06
   130  2.13066E-04 -7.98677E+01 -7.98677E+01  0.00000E+00  0.00000E+00  0.00000E+00  1.73586E+06
   131  2.18259E-04 -7.98646E+01 -7.98646E+01  0.00000E+00  0.00000E+00  0.00000E+00  1.72200E+06
   132  2.23571E-04 -7.98614E+01 -7.98614E+01  0.00000E+00  0.00000E+00  0.00000E+00  1.70812E+06
   133  2.29006E-04 -7.98581E+01 -7.98581E+01  0.00000E+00  0.00000E+00  0.00000E+00  1.69422E+06
   134  2.34567E-04 -7.98547E+01 -7.98547E+01  0.00000E+00  0.00000E+00  0.00000E+00  1.68031E+06
   135  2.40256E-04 -7.98512E+01 -7.98512E+01  0.00000E+00  0.00000E+00  0.00000E+00  1.66639E+06
   136  2.46076E-04 -7.98476E+01 -7.98476E+01  0.00000E+00  0.00000E+00  0.00000E+00  1.65248E+06
   137  2.52030E-04 -7.98439E+01 -7.98439E+01  0.00000E+00  0.00000E+00  0.00000E+00  1.63857E+06
   138  2.58123E-04 -7.98401E+01 -7.98401E+01  0.00000E+00  0.00000E+00  0.00000E+00  1.62466E+06
   139  2.64355E-04 -7.98363E+01 -7.98363E+01  0.00000E+00  0.00000E+00  0.00000E+00  1.61077E+06
   140  2.70732E-04 -7.98323E+01 -7.98323E+01  0.00000E+00  0.00000E+00  0.00000E+00  1.59689E+06
   141  2.77256E-04 -7.98283E+01 -7.98283E+01  0.00000E+00  0.00000E+00  0.00000E+00  1.58304E+06
   142  2.83930E-04 -7.98242E+01 -7.98242E+01  0.00000E+00  0.00000E+00  0.00000E+00  1.56920E+06
   143  2.90759E-04 -7.98199E+01 -7.98199E+01  0.00000E+00  0.00000E+00  0.00000E+00  1.55539E+06
   144  2.97745E-04 -7.98156E+01 -7.98156E+01  0.00000E+00  0.00000E+00  0.00000E+00  1.54161E+06
   145  3.04892E-04 -7.98112E+01 -7.98112E+01  0.00000E+00  0.00000E+00  0.00000E+00  1.52786E+06
   146  3.12205E-04 -7.98067E+01 -7.98067E+01  0.00000E+00  0.00000E+00  0.00000E+00  1.51415E+06
   147  3.19686E-04 -7.98021E+01 -7.98021E+01  0.00000E+00  0.00000E+00  0.00000E+00  1.50047E+06
   148  3.27340E-04 -7.97973E+01 -7.97973E+01  0.00000E+00  0.00000E+00  0.00000E+00  1.48683E+06
   149  3.35171E-04 -7.97925E+01 -7.97925E+01  0.00000E+00  0.00000E+00  0.00000E+00  1.47323E+06
   150  3.43183E-04 -7.97875E+01 -7.97875E+01  0.00000E+00  0.00000E+00  0.00000E+00  1.45967E+06
   151  3.51379E-04 -7.97825E+01 -7.97825E+01  0.00000E+00  0.00000E+00  0.00000E+00  1.44616E+06
   152  3.59765E-04 -7.97773E+01 -7.97773E+01  0.00000E+00  0.00000E+00  0.00000E+00  1.43269E+06
   153  3.68344E-04 -7.97720E+01 -7.97720E+01  0.00000E+00  0.00000E+00  0.00000E+00  1.41927E+06
   154  3.77122E-04 -7.97665E+01 -7.97665E+01  0.00000E+00  0.00000E+00  0.00000E+00  1.40590E+06
   155  3.86102E-04 -7.97610E+01 -7.97610E+01  0.00000E+00  0.00000E+00  0.00000E+00  1.39258E+06
   156  3.95289E-04 -7.97553E+01 -7.97553E+01  0.00000E+00  0.00000E+00  0.00000E+00  1.37931E+06
   157  4.04689E-04 -7.97495E+01 -7.97495E+01  0.00000E+00  0.00000E+00  0.00000E+00  1.36609E+06
   158  4.14305E-04 -7.97436E+01 -7.97436E+01  0.00000E+00  0.00000E+00  0.00000E+00  1.35292E+06
   159  4.24144E-04 -7.97375E+01 -7.97375E+01  0.00000E+00  0.00000E+00  0.00000E+00  1.33981E+06
   160  4.34209E-04 -7.97313E+01 -7.97313E+01  0.00000E+00  0.00000E+00  0.00000E+00  1.32676E+06
   161  4.44507E-04 -7.97249E+01 -7.97249E+01  0.00000E+00  0.00000E+00  0.00000E+00  1.31376E+06
   162  4.55043E-04 -7.97184E+01 -7.97184E+01  0.00000E+00  0.00000E+00  0.00000E+00  1.30081E+06
   163  4.65822E-04 -7.97117E+01 -7.97117E+01  0.00000E+00  0.00000E+00  0.00000E+00  1.28792E+06
   164  4.76850E-04 -7.97049E+01 -7.97049E+01  0.00000E+00  0.00000E+00  0.00000E+00  1.27510E+06
   165  4.88132E-04 -7.96980E+01 -7.96980E+01  0.00000E+00  0.00000E+00  0.00000E+00  1.26232E+06
   166  4.99675E-04 -7.96908E+01 -7.96908E+01  0.00000E+00  0.00000E+00  0.00000E+00  1.24961E+06
   167  5.11485E-04 -7.96836E+01 -7.96836E+01  0.00000E+00  0.00000E+00  0.00000E+00  1.23696E+06
   168  5.23567E-04 -7.96761E+01 -7.96761E+01  0.00000E+00  0.00000E+00  0.00000E+00  1.22436E+06
   169  5.35928E-04 -7.96685E+01 -7.96685E+01  0.00000E+00  0.00000E+00  0.00000E+00  1.21182E+06
   170  5.48574E-04 -7.96607E+01 -7.96607E+01  0.00000E+00  0.00000E+00  0.00000E+00  1.19935E+06
   171  5.61513E-04 -7.96527E+01 -7.96527E+01  0.00000E+00  0.00000E+00  0.00000E+00  1.18693E+06
   172  5.74750E-04 -7.96445E+01 -7.96445E+01  0.00000E+00  0.00000E+00  0.00000E+00  1.17457E+06
   173  5.88292E-04 -7.96362E+01 -7.96362E+01  0.00000E+00  0.00000E+00  0.00000E+00  1.16227E+06
   174  6.02148E-04 -7.96276E+01 -7.96276E+01  0.00000E+00  0.00000E+00  0.00000E+00  1.15003E+06
   175  6.16323E-04 -7.96189E+01 -7.96189E+01  0.00000E+00  0.00000E+00  0.00000E+00  1.13786E+06
   176  6.30825E-04 -7.96100E+01 -7.96100E+01  0.00000E+00  0.00000E+00  0.00000E+00  1.12574E+06
   177  6.45662E-04 -7.96008E+01 -7.96008E+01  0.00000E+00  0.00000E+00  0.00000E+00  1.11368E+06
   178  6.60842E-04 -7.95915E+01 -7.95915E+01  0.00000E+00  0.00000E+00  0.00000E+00  1.10167E+06
   179  6.76372E-04 -7.95819E+01 -7.95819E+01  0.00000E+00  0.00000E+00  0.00000E+00  1.08973E+06
   180  6.92261E-04 -7.95721E+01 -7.95721E+01  0.00000E+00  0.00000E+00  0.00000E+00  1.07785E+06
   181  7.08516E-04 -7.95621E+01 -7.95621E+01  0.00000E+00  0.00000E+00  0.00000E+00  1.06603E+06
   182  7.25147E-04 -7.95519E+01 -7.95519E+01  0.00000E+00  0.00000E+00  0.00000E+00  1.05426E+06
   183  7.42162E-04 -7.95414E+01 -7.95414E+01  0.00000E+00  0.00000E+00  0.00000E+00  1.04255E+06
   184  7.59569E-04 -7.95307E+01 -7.95307E+01  0.00000E+00  0.00000E+00  0.00000E+00  1.03091E+06
   185  7.77379E-04 -7.95198E+01 -7.95198E+01  0.00000E+00  0.00000E+00  0.00000E+00  1.01932E+06
   186  7.95599E-04 -7.95086E+01 -7.95086E+01  0.00000E+00  0.00000E+00  0.00000E+00  1.00778E+06
   187  8.14240E-04 -7.94971E+01 -7.94971E+01  0.00000E+00  0.00000E+00  0.00000E+00  9.96308E+05
   188  8.33312E-04 -7.94854E+01 -7.94854E+01  0.00000E+00  0.00000E+00  0.00000E+00  9.84889E+05
   189  8.52823E-04 -7.94734E+01 -7.94734E+01  0.00000E+00  0.00000E+00  0.00000E+00  9.73528E+05
   190  8.72785E-04 -7.94612E+01 -7.94612E+01  0.00000E+00  0.00000E+00  0.00000E+00  9.62223E+05
   191  8.93208E-04 -7.94486E+01 -7.94486E+01  0.00000E+00  0.00000E+00  0.00000E+00  9.50975E+05
   192  9.14103E-04 -7.94358E+01 -7.94358E+01  0.00000E+00  0.00000E+00  0.00000E+00  9.39782E+05
   193  9.35480E-04 -7.94227E+01 -7.94227E+01  0.00000E+00  0.00000E+00  0.00000E+00  9.28645E+05
   194  9.57350E-04 -7.94093E+01 -7.94093E+01  0.00000E+00  0.00000E+00  0.00000E+00  9.17563E+05
   195  9.79725E-04 -7.93956E+01 -7.93956E+01  0.00000E+00  0.00000E+00  0.00000E+00  9.06536E+05
   196  1.00262E-03 -7.93816E+01 -7.93816E+01  0.00000E+00  0.00000E+00  0.00000E+00  8.95564E+05
   197  1.02604E-03 -7.93672E+01 -7.93672E+01  0.00000E+00  0.00000E+00  0.00000E+00  8.84646E+05
   198  1.05000E-03 -7.93526E+01 -7.93526E+01  0.00000E+00  0.00000E+00  0.00000E+00  8.73783E+05
   199  1.07451E-03 -7.93376E+01 -7.93376E+01  0.00000E+00  0.00000E+00  0.00000E+00  8.62973E+05
   200  1.09959E-03 -7.93222E+01 -7.93222E+01  0.00000E+00  0.00000E+00  0.00000E+00  8.52216E+05
