 #
 # Subroutine ELSEPA. Elastic scattering of electrons and positrons
 #                    by neutral atoms and positive ions
 #
 # Projectile: electron
 # Kinetic energy = 1.70000E+04 eV = 6.24739E+02 a.u.
 #
 # Element: Hg,  Z =  80,  atomic weight = 2.00590E+02 g/mol
 #
 # Nuclear model: Fermi distribution
 #                Average radius = 6.26355E-13 cm
 #                Skin thickness = 5.46000E-14 cm
 #
 # Number of electrons = 80
 #
 # Electron density: Read from file z_080.den   
 #                   Number of data points =  763
 #                   Volume integral = 8.00000E+01
 #
 # Thomas-Fermi exchange potential
 #
 # Total elastic cross section = 6.17977E-17 cm**2 = 2.20684E+00 a0**2
 # 1st transport cross section = 2.15023E-18 cm**2 = 7.67862E-02 a0**2
 # 2nd transport cross section = 3.75964E-18 cm**2 = 1.34259E-01 a0**2
 #
 #
 # Differential cross section:                       MU=(1-COS(THETA))/2
 #
 #  THETA        MU          DCS          DCS        Sherman      error
 #  (deg)                 (cm**2/sr)   (a0**2/sr)    function
 #----------------------------------------------------------------------
  0.000E+00  0.00000E+00  7.86709E-15  2.80939E+02  0.00000E+00  1.0E-07
  1.000E-04  7.61557E-13  7.86709E-15  2.80939E+02  9.57507E-10  1.0E-07
  1.250E-04  1.18994E-12  7.86709E-15  2.80939E+02  1.19688E-09  1.0E-07
  1.500E-04  1.71346E-12  7.86709E-15  2.80939E+02  1.43626E-09  1.0E-07
  1.750E-04  2.33225E-12  7.86709E-15  2.80939E+02  1.67564E-09  1.0E-07
  2.000E-04  3.04617E-12  7.86709E-15  2.80939E+02  1.91501E-09  1.0E-07
  2.250E-04  3.85530E-12  7.86709E-15  2.80939E+02  2.15439E-09  1.0E-07
  2.500E-04  4.75964E-12  7.86709E-15  2.80939E+02  2.39377E-09  1.0E-07
  2.750E-04  5.75917E-12  7.86709E-15  2.80939E+02  2.63314E-09  1.0E-07
  3.000E-04  6.85391E-12  7.86709E-15  2.80939E+02  2.87252E-09  1.0E-07
  3.250E-04  8.04379E-12  7.86709E-15  2.80939E+02  3.11190E-09  1.0E-07
  3.500E-04  9.32893E-12  7.86709E-15  2.80939E+02  3.35127E-09  1.0E-07
  3.750E-04  1.07092E-11  7.86709E-15  2.80939E+02  3.59065E-09  1.0E-07
  4.000E-04  1.21847E-11  7.86709E-15  2.80939E+02  3.83003E-09  1.0E-07
  4.250E-04  1.37554E-11  7.86709E-15  2.80939E+02  4.06941E-09  1.0E-07
  4.500E-04  1.54213E-11  7.86709E-15  2.80939E+02  4.30878E-09  1.0E-07
  4.750E-04  1.71823E-11  7.86709E-15  2.80939E+02  4.54816E-09  1.0E-07
  5.000E-04  1.90386E-11  7.86709E-15  2.80939E+02  4.78754E-09  1.0E-07
  5.250E-04  2.09900E-11  7.86709E-15  2.80939E+02  5.02691E-09  1.0E-07
  5.500E-04  2.30367E-11  7.86709E-15  2.80939E+02  5.26629E-09  1.0E-07
  5.750E-04  2.51785E-11  7.86709E-15  2.80939E+02  5.50567E-09  1.0E-07
  6.000E-04  2.74156E-11  7.86709E-15  2.80939E+02  5.74504E-09  1.0E-07
  6.250E-04  2.97478E-11  7.86709E-15  2.80939E+02  5.98442E-09  1.0E-07
  6.500E-04  3.21752E-11  7.86709E-15  2.80939E+02  6.22380E-09  1.0E-07
  6.750E-04  3.46979E-11  7.86709E-15  2.80939E+02  6.46317E-09  1.0E-07
  7.000E-04  3.73157E-11  7.86709E-15  2.80939E+02  6.70255E-09  1.0E-07
  7.250E-04  4.00286E-11  7.86709E-15  2.80939E+02  6.94193E-09  1.0E-07
  7.500E-04  4.28368E-11  7.86709E-15  2.80939E+02  7.18130E-09  1.0E-07
  7.750E-04  4.57402E-11  7.86709E-15  2.80939E+02  7.42068E-09  1.0E-07
  8.000E-04  4.87388E-11  7.86709E-15  2.80939E+02  7.66006E-09  1.0E-07
  8.250E-04  5.18325E-11  7.86709E-15  2.80939E+02  7.89943E-09  1.0E-07
  8.500E-04  5.50215E-11  7.86709E-15  2.80939E+02  8.13881E-09  1.0E-07
  8.750E-04  5.83057E-11  7.86709E-15  2.80939E+02  8.37819E-09  1.0E-07
  9.000E-04  6.16850E-11  7.86709E-15  2.80939E+02  8.61756E-09  1.0E-07
  9.250E-04  6.51595E-11  7.86709E-15  2.80939E+02  8.85694E-09  1.0E-07
  9.500E-04  6.87293E-11  7.86709E-15  2.80939E+02  9.09632E-09  1.0E-07
  9.750E-04  7.23943E-11  7.86709E-15  2.80939E+02  9.33570E-09  1.0E-07
  1.000E-03  7.61544E-11  7.86709E-15  2.80939E+02  9.57507E-09  1.0E-07
  1.250E-03  1.18991E-10  7.86709E-15  2.80939E+02  1.19688E-08  1.0E-07
  1.500E-03  1.71347E-10  7.86709E-15  2.80939E+02  1.43626E-08  1.0E-07
  1.750E-03  2.33223E-10  7.86708E-15  2.80939E+02  1.67564E-08  1.0E-07
  2.000E-03  3.04617E-10  7.86708E-15  2.80939E+02  1.91502E-08  1.0E-07
  2.250E-03  3.85531E-10  7.86708E-15  2.80938E+02  2.15439E-08  1.0E-07
  2.500E-03  4.75965E-10  7.86708E-15  2.80938E+02  2.39377E-08  1.0E-07
  2.750E-03  5.75917E-10  7.86707E-15  2.80938E+02  2.63315E-08  1.0E-07
  3.000E-03  6.85389E-10  7.86707E-15  2.80938E+02  2.87253E-08  1.0E-07
  3.250E-03  8.04380E-10  7.86706E-15  2.80938E+02  3.11190E-08  1.0E-07
  3.500E-03  9.32891E-10  7.86706E-15  2.80938E+02  3.35128E-08  1.0E-07
  3.750E-03  1.07092E-09  7.86705E-15  2.80938E+02  3.59066E-08  1.0E-07
  4.000E-03  1.21847E-09  7.86705E-15  2.80937E+02  3.83004E-08  1.0E-07
  4.250E-03  1.37554E-09  7.86704E-15  2.80937E+02  4.06942E-08  1.0E-07
  4.500E-03  1.54213E-09  7.86704E-15  2.80937E+02  4.30880E-08  1.0E-07
  4.750E-03  1.71823E-09  7.86703E-15  2.80937E+02  4.54818E-08  1.0E-07
  5.000E-03  1.90386E-09  7.86703E-15  2.80937E+02  4.78756E-08  1.0E-07
  5.250E-03  2.09900E-09  7.86702E-15  2.80936E+02  5.02694E-08  1.0E-07
  5.500E-03  2.30367E-09  7.86701E-15  2.80936E+02  5.26632E-08  1.0E-07
  5.750E-03  2.51785E-09  7.86701E-15  2.80936E+02  5.50570E-08  1.0E-07
  6.000E-03  2.74156E-09  7.86700E-15  2.80936E+02  5.74509E-08  1.0E-07
  6.250E-03  2.97478E-09  7.86699E-15  2.80935E+02  5.98447E-08  1.0E-07
  6.500E-03  3.21752E-09  7.86698E-15  2.80935E+02  6.22385E-08  1.0E-07
  6.750E-03  3.46978E-09  7.86697E-15  2.80935E+02  6.46323E-08  1.0E-07
  7.000E-03  3.73156E-09  7.86696E-15  2.80934E+02  6.70262E-08  1.0E-07
  7.250E-03  4.00286E-09  7.86695E-15  2.80934E+02  6.94200E-08  1.0E-07
  7.500E-03  4.28368E-09  7.86694E-15  2.80934E+02  7.18139E-08  1.0E-07
  7.750E-03  4.57402E-09  7.86694E-15  2.80933E+02  7.42077E-08  1.0E-07
  8.000E-03  4.87388E-09  7.86692E-15  2.80933E+02  7.66016E-08  1.0E-07
  8.250E-03  5.18326E-09  7.86691E-15  2.80933E+02  7.89954E-08  1.0E-07
  8.500E-03  5.50215E-09  7.86690E-15  2.80932E+02  8.13893E-08  1.0E-07
  8.750E-03  5.83057E-09  7.86689E-15  2.80932E+02  8.37832E-08  1.0E-07
  9.000E-03  6.16850E-09  7.86688E-15  2.80931E+02  8.61771E-08  1.0E-07
  9.250E-03  6.51596E-09  7.86687E-15  2.80931E+02  8.85710E-08  1.0E-07
  9.500E-03  6.87293E-09  7.86686E-15  2.80931E+02  9.09649E-08  1.0E-07
  9.750E-03  7.23942E-09  7.86684E-15  2.80930E+02  9.33588E-08  1.0E-07
  1.000E-02  7.61544E-09  7.86683E-15  2.80930E+02  9.57527E-08  1.0E-07
  1.250E-02  1.18991E-08  7.86668E-15  2.80924E+02  1.19692E-07  1.0E-07
  1.500E-02  1.71347E-08  7.86651E-15  2.80918E+02  1.43633E-07  1.0E-07
  1.750E-02  2.33223E-08  7.86629E-15  2.80910E+02  1.67574E-07  1.0E-07
  2.000E-02  3.04617E-08  7.86605E-15  2.80902E+02  1.91517E-07  1.0E-07
  2.250E-02  3.85531E-08  7.86577E-15  2.80892E+02  2.15462E-07  1.0E-07
  2.500E-02  4.75965E-08  7.86546E-15  2.80881E+02  2.39408E-07  1.0E-07
  2.750E-02  5.75917E-08  7.86512E-15  2.80869E+02  2.63356E-07  1.0E-07
  3.000E-02  6.85389E-08  7.86475E-15  2.80855E+02  2.87306E-07  1.0E-07
  3.250E-02  8.04380E-08  7.86434E-15  2.80841E+02  3.11258E-07  1.0E-07
  3.500E-02  9.32891E-08  7.86390E-15  2.80825E+02  3.35213E-07  1.0E-07
  3.750E-02  1.07092E-07  7.86343E-15  2.80808E+02  3.59170E-07  1.0E-07
  4.000E-02  1.21847E-07  7.86292E-15  2.80790E+02  3.83130E-07  1.0E-07
  4.250E-02  1.37554E-07  7.86239E-15  2.80771E+02  4.07093E-07  1.0E-07
  4.500E-02  1.54213E-07  7.86182E-15  2.80751E+02  4.31060E-07  1.0E-07
  4.750E-02  1.71823E-07  7.86121E-15  2.80729E+02  4.55029E-07  1.0E-07
  5.000E-02  1.90386E-07  7.86058E-15  2.80706E+02  4.79002E-07  1.0E-07
  5.250E-02  2.09900E-07  7.85991E-15  2.80683E+02  5.02979E-07  1.0E-07
  5.500E-02  2.30367E-07  7.85921E-15  2.80658E+02  5.26960E-07  1.0E-07
  5.750E-02  2.51785E-07  7.85848E-15  2.80632E+02  5.50945E-07  1.0E-07
  6.000E-02  2.74156E-07  7.85772E-15  2.80604E+02  5.74934E-07  1.0E-07
  6.250E-02  2.97478E-07  7.85692E-15  2.80576E+02  5.98928E-07  1.0E-07
  6.500E-02  3.21752E-07  7.85609E-15  2.80546E+02  6.22927E-07  1.0E-07
  6.750E-02  3.46978E-07  7.85523E-15  2.80515E+02  6.46930E-07  1.0E-07
  7.000E-02  3.73156E-07  7.85434E-15  2.80484E+02  6.70938E-07  1.0E-07
  7.250E-02  4.00286E-07  7.85341E-15  2.80450E+02  6.94952E-07  1.0E-07
  7.500E-02  4.28368E-07  7.85245E-15  2.80416E+02  7.18971E-07  1.0E-07
  7.750E-02  4.57402E-07  7.85146E-15  2.80381E+02  7.42995E-07  1.0E-07
  8.000E-02  4.87388E-07  7.85044E-15  2.80344E+02  7.67025E-07  1.0E-07
  8.250E-02  5.18325E-07  7.84939E-15  2.80307E+02  7.91062E-07  1.0E-07
  8.500E-02  5.50215E-07  7.84830E-15  2.80268E+02  8.15104E-07  1.0E-07
  8.750E-02  5.83057E-07  7.84718E-15  2.80228E+02  8.39153E-07  1.0E-07
  9.000E-02  6.16850E-07  7.84603E-15  2.80187E+02  8.63208E-07  1.0E-07
  9.250E-02  6.51596E-07  7.84484E-15  2.80144E+02  8.87270E-07  1.0E-07
  9.500E-02  6.87293E-07  7.84363E-15  2.80101E+02  9.11339E-07  1.0E-07
  9.750E-02  7.23942E-07  7.84238E-15  2.80057E+02  9.35416E-07  1.0E-07
  1.000E-01  7.61543E-07  7.84110E-15  2.80011E+02  9.59499E-07  1.0E-07
  1.250E-01  1.18991E-06  7.82654E-15  2.79491E+02  1.20077E-06  1.0E-07
  1.500E-01  1.71347E-06  7.80881E-15  2.78858E+02  1.44298E-06  1.0E-07
  1.750E-01  2.33223E-06  7.78794E-15  2.78112E+02  1.68631E-06  1.0E-07
  2.000E-01  3.04617E-06  7.76397E-15  2.77257E+02  1.93095E-06  1.0E-07
  2.250E-01  3.85531E-06  7.73696E-15  2.76292E+02  2.17708E-06  1.0E-07
  2.500E-01  4.75964E-06  7.70695E-15  2.75220E+02  2.42489E-06  1.0E-07
  2.750E-01  5.75916E-06  7.67400E-15  2.74044E+02  2.67457E-06  1.0E-07
  3.000E-01  6.85388E-06  7.63818E-15  2.72764E+02  2.92630E-06  1.0E-07
  3.250E-01  8.04378E-06  7.59956E-15  2.71385E+02  3.18027E-06  1.0E-07
  3.500E-01  9.32888E-06  7.55821E-15  2.69909E+02  3.43667E-06  1.0E-07
  3.750E-01  1.07092E-05  7.51422E-15  2.68338E+02  3.69569E-06  1.0E-07
  4.000E-01  1.21846E-05  7.46765E-15  2.66675E+02  3.95750E-06  1.0E-07
  4.250E-01  1.37553E-05  7.41860E-15  2.64923E+02  4.22230E-06  1.0E-07
  4.500E-01  1.54212E-05  7.36716E-15  2.63086E+02  4.49028E-06  1.0E-07
  4.750E-01  1.71822E-05  7.31342E-15  2.61167E+02  4.76161E-06  1.0E-07
  5.000E-01  1.90385E-05  7.25748E-15  2.59169E+02  5.03649E-06  1.0E-07
  5.250E-01  2.09899E-05  7.19942E-15  2.57096E+02  5.31510E-06  1.0E-07
  5.500E-01  2.30365E-05  7.13936E-15  2.54951E+02  5.59763E-06  1.0E-07
  5.750E-01  2.51783E-05  7.07738E-15  2.52738E+02  5.88427E-06  1.0E-07
  6.000E-01  2.74153E-05  7.01360E-15  2.50460E+02  6.17519E-06  1.0E-07
  6.250E-01  2.97475E-05  6.94811E-15  2.48122E+02  6.47059E-06  1.0E-07
  6.500E-01  3.21749E-05  6.88102E-15  2.45726E+02  6.77064E-06  1.0E-07
  6.750E-01  3.46974E-05  6.81243E-15  2.43276E+02  7.07555E-06  1.0E-07
  7.000E-01  3.73152E-05  6.74244E-15  2.40777E+02  7.38548E-06  1.0E-07
  7.250E-01  4.00281E-05  6.67115E-15  2.38231E+02  7.70063E-06  1.0E-07
  7.500E-01  4.28362E-05  6.59867E-15  2.35643E+02  8.02118E-06  1.0E-07
  7.750E-01  4.57395E-05  6.52510E-15  2.33016E+02  8.34731E-06  1.0E-07
  8.000E-01  4.87380E-05  6.45054E-15  2.30353E+02  8.67921E-06  1.0E-07
  8.250E-01  5.18317E-05  6.37508E-15  2.27658E+02  9.01707E-06  1.0E-07
  8.500E-01  5.50205E-05  6.29882E-15  2.24935E+02  9.36105E-06  1.0E-07
  8.750E-01  5.83045E-05  6.22185E-15  2.22186E+02  9.71136E-06  1.0E-07
  9.000E-01  6.16838E-05  6.14428E-15  2.19416E+02  1.00682E-05  1.0E-07
  9.250E-01  6.51582E-05  6.06618E-15  2.16627E+02  1.04317E-05  1.0E-07
  9.500E-01  6.87277E-05  5.98764E-15  2.13822E+02  1.08020E-05  1.0E-07
  9.750E-01  7.23925E-05  5.90875E-15  2.11005E+02  1.11794E-05  1.0E-07
  1.000E+00  7.61524E-05  5.82959E-15  2.08179E+02  1.15640E-05  1.0E-07
  1.100E+00  9.21439E-05  5.51182E-15  1.96831E+02  1.31785E-05  1.0E-07
  1.200E+00  1.09658E-04  5.19556E-15  1.85537E+02  1.49230E-05  1.0E-07
  1.300E+00  1.28695E-04  4.88467E-15  1.74435E+02  1.68089E-05  1.0E-07
  1.400E+00  1.49255E-04  4.58221E-15  1.63634E+02  1.88477E-05  1.0E-07
  1.500E+00  1.71338E-04  4.29055E-15  1.53218E+02  2.10505E-05  1.0E-07
  1.600E+00  1.94942E-04  4.01138E-15  1.43249E+02  2.34284E-05  1.0E-07
  1.700E+00  2.20070E-04  3.74586E-15  1.33767E+02  2.59924E-05  1.0E-07
  1.800E+00  2.46720E-04  3.49465E-15  1.24796E+02  2.87534E-05  1.0E-07
  1.900E+00  2.74892E-04  3.25801E-15  1.16346E+02  3.17224E-05  1.0E-07
  2.000E+00  3.04586E-04  3.03591E-15  1.08414E+02  3.49100E-05  1.0E-07
  2.100E+00  3.35803E-04  2.82807E-15  1.00992E+02  3.83272E-05  1.0E-07
  2.200E+00  3.68542E-04  2.63407E-15  9.40643E+01  4.19847E-05  1.0E-07
  2.300E+00  4.02802E-04  2.45332E-15  8.76098E+01  4.58932E-05  1.0E-07
  2.400E+00  4.38585E-04  2.28519E-15  8.16058E+01  5.00633E-05  1.0E-07
  2.500E+00  4.75889E-04  2.12899E-15  7.60276E+01  5.45057E-05  1.0E-07
  2.600E+00  5.14715E-04  1.98399E-15  7.08497E+01  5.92310E-05  1.0E-07
  2.700E+00  5.55063E-04  1.84950E-15  6.60468E+01  6.42495E-05  1.0E-07
  2.800E+00  5.96931E-04  1.72480E-15  6.15936E+01  6.95717E-05  1.0E-07
  2.900E+00  6.40321E-04  1.60922E-15  5.74661E+01  7.52077E-05  1.0E-07
  3.000E+00  6.85233E-04  1.50210E-15  5.36411E+01  8.11674E-05  1.0E-07
  3.100E+00  7.31665E-04  1.40284E-15  5.00965E+01  8.74605E-05  1.0E-07
  3.200E+00  7.79618E-04  1.31086E-15  4.68117E+01  9.40963E-05  1.0E-07
  3.300E+00  8.29092E-04  1.22561E-15  4.37672E+01  1.01084E-04  1.0E-07
  3.400E+00  8.80086E-04  1.14657E-15  4.09449E+01  1.08431E-04  1.0E-07
  3.500E+00  9.32601E-04  1.07329E-15  3.83280E+01  1.16146E-04  1.0E-07
  3.600E+00  9.86636E-04  1.00533E-15  3.59008E+01  1.24237E-04  1.0E-07
  3.700E+00  1.04219E-03  9.42267E-16  3.36490E+01  1.32709E-04  1.0E-07
  3.800E+00  1.09927E-03  8.83742E-16  3.15590E+01  1.41568E-04  1.0E-07
  3.900E+00  1.15786E-03  8.29403E-16  2.96185E+01  1.50820E-04  1.0E-07
  4.000E+00  1.21797E-03  7.78932E-16  2.78162E+01  1.60469E-04  1.0E-07
  4.100E+00  1.27961E-03  7.32034E-16  2.61414E+01  1.70517E-04  1.0E-07
  4.200E+00  1.34276E-03  6.88438E-16  2.45846E+01  1.80966E-04  1.0E-07
  4.300E+00  1.40743E-03  6.47892E-16  2.31366E+01  1.91818E-04  1.0E-07
  4.400E+00  1.47362E-03  6.10166E-16  2.17894E+01  2.03071E-04  1.0E-07
  4.500E+00  1.54133E-03  5.75048E-16  2.05353E+01  2.14725E-04  1.0E-07
  4.600E+00  1.61056E-03  5.42342E-16  1.93674E+01  2.26777E-04  1.0E-07
  4.700E+00  1.68131E-03  5.11866E-16  1.82791E+01  2.39222E-04  1.0E-07
  4.800E+00  1.75357E-03  4.83455E-16  1.72645E+01  2.52056E-04  1.0E-07
  4.900E+00  1.82735E-03  4.56954E-16  1.63181E+01  2.65271E-04  1.0E-07
  5.000E+00  1.90265E-03  4.32222E-16  1.54349E+01  2.78861E-04  1.0E-07
  5.100E+00  1.97947E-03  4.09129E-16  1.46103E+01  2.92814E-04  1.0E-07
  5.200E+00  2.05780E-03  3.87555E-16  1.38398E+01  3.07122E-04  1.0E-07
  5.300E+00  2.13765E-03  3.67387E-16  1.31196E+01  3.21772E-04  1.0E-07
  5.400E+00  2.21902E-03  3.48523E-16  1.24460E+01  3.36751E-04  1.0E-07
  5.500E+00  2.30190E-03  3.30868E-16  1.18155E+01  3.52046E-04  1.0E-07
  5.600E+00  2.38630E-03  3.14336E-16  1.12252E+01  3.67642E-04  1.0E-07
  5.700E+00  2.47222E-03  2.98845E-16  1.06720E+01  3.83522E-04  1.0E-07
  5.800E+00  2.55965E-03  2.84321E-16  1.01533E+01  3.99669E-04  1.0E-07
  5.900E+00  2.64859E-03  2.70694E-16  9.66666E+00  4.16066E-04  1.0E-07
  6.000E+00  2.73905E-03  2.57901E-16  9.20982E+00  4.32694E-04  1.0E-07
  6.100E+00  2.83103E-03  2.45883E-16  8.78065E+00  4.49533E-04  1.0E-07
  6.200E+00  2.92452E-03  2.34586E-16  8.37721E+00  4.66564E-04  1.0E-07
  6.300E+00  3.01952E-03  2.23959E-16  7.99771E+00  4.83767E-04  1.0E-07
  6.400E+00  3.11604E-03  2.13955E-16  7.64048E+00  5.01120E-04  1.0E-07
  6.500E+00  3.21407E-03  2.04532E-16  7.30397E+00  5.18602E-04  1.0E-07
  6.600E+00  3.31362E-03  1.95650E-16  6.98678E+00  5.36192E-04  1.0E-07
  6.700E+00  3.41468E-03  1.87271E-16  6.68757E+00  5.53868E-04  1.0E-07
  6.800E+00  3.51725E-03  1.79362E-16  6.40514E+00  5.71609E-04  1.0E-07
  6.900E+00  3.62133E-03  1.71891E-16  6.13834E+00  5.89391E-04  1.0E-07
  7.000E+00  3.72692E-03  1.64829E-16  5.88615E+00  6.07194E-04  1.0E-07
  7.100E+00  3.83403E-03  1.58148E-16  5.64758E+00  6.24994E-04  1.0E-07
  7.200E+00  3.94265E-03  1.51824E-16  5.42174E+00  6.42771E-04  1.0E-07
  7.300E+00  4.05278E-03  1.45833E-16  5.20780E+00  6.60502E-04  1.0E-07
  7.400E+00  4.16442E-03  1.40154E-16  5.00499E+00  6.78165E-04  1.0E-07
  7.500E+00  4.27757E-03  1.34767E-16  4.81260E+00  6.95739E-04  1.0E-07
  7.600E+00  4.39223E-03  1.29652E-16  4.62996E+00  7.13202E-04  1.0E-07
  7.700E+00  4.50840E-03  1.24794E-16  4.45646E+00  7.30533E-04  1.0E-07
  7.800E+00  4.62608E-03  1.20175E-16  4.29153E+00  7.47710E-04  1.0E-07
  7.900E+00  4.74527E-03  1.15782E-16  4.13464E+00  7.64712E-04  1.0E-07
  8.000E+00  4.86597E-03  1.11600E-16  3.98529E+00  7.81518E-04  1.0E-07
  8.100E+00  4.98817E-03  1.07616E-16  3.84304E+00  7.98106E-04  1.0E-07
  8.200E+00  5.11188E-03  1.03819E-16  3.70745E+00  8.14457E-04  1.0E-07
  8.300E+00  5.23711E-03  1.00198E-16  3.57814E+00  8.30549E-04  1.0E-07
  8.400E+00  5.36383E-03  9.67423E-17  3.45473E+00  8.46360E-04  1.0E-07
  8.500E+00  5.49207E-03  9.34423E-17  3.33689E+00  8.61871E-04  1.0E-07
  8.600E+00  5.62181E-03  9.02893E-17  3.22429E+00  8.77061E-04  1.0E-07
  8.700E+00  5.75306E-03  8.72748E-17  3.11664E+00  8.91908E-04  1.0E-07
  8.800E+00  5.88581E-03  8.43913E-17  3.01367E+00  9.06391E-04  1.0E-07
  8.900E+00  6.02007E-03  8.16315E-17  2.91511E+00  9.20490E-04  1.0E-07
  9.000E+00  6.15583E-03  7.89887E-17  2.82074E+00  9.34183E-04  1.0E-07
  9.100E+00  6.29310E-03  7.64565E-17  2.73031E+00  9.47449E-04  1.0E-07
  9.200E+00  6.43187E-03  7.40293E-17  2.64363E+00  9.60267E-04  1.0E-07
  9.300E+00  6.57214E-03  7.17014E-17  2.56050E+00  9.72614E-04  1.0E-07
  9.400E+00  6.71392E-03  6.94677E-17  2.48074E+00  9.84470E-04  1.0E-07
  9.500E+00  6.85720E-03  6.73235E-17  2.40417E+00  9.95812E-04  1.0E-07
  9.600E+00  7.00198E-03  6.52643E-17  2.33063E+00  1.00662E-03  1.0E-07
  9.700E+00  7.14827E-03  6.32858E-17  2.25998E+00  1.01686E-03  1.0E-07
  9.800E+00  7.29605E-03  6.13841E-17  2.19207E+00  1.02653E-03  1.0E-07
  9.900E+00  7.44534E-03  5.95556E-17  2.12677E+00  1.03559E-03  1.0E-07
  1.000E+01  7.59612E-03  5.77966E-17  2.06395E+00  1.04402E-03  1.0E-07
  1.025E+01  7.97965E-03  5.36828E-17  1.91705E+00  1.06221E-03  1.0E-07
  1.050E+01  8.37255E-03  4.99382E-17  1.78332E+00  1.07596E-03  1.0E-07
  1.075E+01  8.77480E-03  4.65228E-17  1.66136E+00  1.08490E-03  1.0E-07
  1.100E+01  9.18641E-03  4.34022E-17  1.54992E+00  1.08864E-03  1.0E-07
  1.125E+01  9.60736E-03  4.05463E-17  1.44794E+00  1.08681E-03  1.0E-07
  1.150E+01  1.00376E-02  3.79289E-17  1.35446E+00  1.07902E-03  1.0E-07
  1.175E+01  1.04773E-02  3.55266E-17  1.26868E+00  1.06490E-03  1.0E-07
  1.200E+01  1.09262E-02  3.33191E-17  1.18985E+00  1.04407E-03  1.0E-07
  1.225E+01  1.13844E-02  3.12881E-17  1.11732E+00  1.01619E-03  1.0E-07
  1.250E+01  1.18520E-02  2.94174E-17  1.05051E+00  9.80928E-04  1.0E-07
  1.275E+01  1.23288E-02  2.76925E-17  9.88916E-01  9.37962E-04  1.0E-07
  1.300E+01  1.28150E-02  2.61003E-17  9.32059E-01  8.87011E-04  1.0E-07
  1.325E+01  1.33104E-02  2.46292E-17  8.79526E-01  8.27818E-04  1.0E-07
  1.350E+01  1.38150E-02  2.32686E-17  8.30937E-01  7.60161E-04  1.0E-07
  1.375E+01  1.43290E-02  2.20089E-17  7.85952E-01  6.83855E-04  1.0E-07
  1.400E+01  1.48521E-02  2.08414E-17  7.44261E-01  5.98755E-04  1.0E-07
  1.425E+01  1.53845E-02  1.97584E-17  7.05584E-01  5.04752E-04  1.0E-07
  1.450E+01  1.59262E-02  1.87525E-17  6.69664E-01  4.01783E-04  1.0E-07
  1.475E+01  1.64770E-02  1.78174E-17  6.36271E-01  2.89825E-04  1.0E-07
  1.500E+01  1.70371E-02  1.69471E-17  6.05192E-01  1.68894E-04  1.0E-07
  1.525E+01  1.76063E-02  1.61362E-17  5.76235E-01  3.90512E-05  1.0E-07
  1.550E+01  1.81848E-02  1.53799E-17  5.49225E-01 -9.96079E-05  1.0E-07
