 #
 # Subroutine ELSEPA. Elastic scattering of electrons and positrons
 #                    by neutral atoms and positive ions
 #
 # Projectile: electron
 # Kinetic energy = 4.50000E+03 eV = 1.65372E+02 a.u.
 #
 # Element: Hg,  Z =  80,  atomic weight = 2.00590E+02 g/mol
 #
 # Nuclear model: Fermi distribution
 #                Average radius = 6.26355E-13 cm
 #                Skin thickness = 5.46000E-14 cm
 #
 # Number of electrons = 80
 #
 # Electron density: Read from file z_080.den   
 #                   Number of data points =  763
 #                   Volume integral = 8.00000E+01
 #
 # Thomas-Fermi exchange potential
 #
 # Total elastic cross section = 1.27163E-16 cm**2 = 4.54106E+00 a0**2
 # 1st transport cross section = 1.37504E-17 cm**2 = 4.91036E-01 a0**2
 # 2nd transport cross section = 1.67205E-17 cm**2 = 5.97098E-01 a0**2
 #
 #
 # Differential cross section:                       MU=(1-COS(THETA))/2
 #
 #  THETA        MU          DCS          DCS        Sherman      error
 #  (deg)                 (cm**2/sr)   (a0**2/sr)    function
 #----------------------------------------------------------------------
  0.000E+00  0.00000E+00  5.27744E-15  1.88461E+02  0.00000E+00  1.0E-07
  1.000E-04  7.61557E-13  5.27744E-15  1.88461E+02  2.98356E-10  1.0E-07
  1.250E-04  1.18994E-12  5.27744E-15  1.88461E+02  3.72945E-10  1.0E-07
  1.500E-04  1.71346E-12  5.27744E-15  1.88461E+02  4.47534E-10  1.0E-07
  1.750E-04  2.33225E-12  5.27744E-15  1.88461E+02  5.22123E-10  1.0E-07
  2.000E-04  3.04617E-12  5.27744E-15  1.88461E+02  5.96712E-10  1.0E-07
  2.250E-04  3.85530E-12  5.27744E-15  1.88461E+02  6.71301E-10  1.0E-07
  2.500E-04  4.75964E-12  5.27744E-15  1.88461E+02  7.45890E-10  1.0E-07
  2.750E-04  5.75917E-12  5.27744E-15  1.88461E+02  8.20479E-10  1.0E-07
  3.000E-04  6.85391E-12  5.27744E-15  1.88461E+02  8.95068E-10  1.0E-07
  3.250E-04  8.04379E-12  5.27744E-15  1.88461E+02  9.69657E-10  1.0E-07
  3.500E-04  9.32893E-12  5.27744E-15  1.88461E+02  1.04425E-09  1.0E-07
  3.750E-04  1.07092E-11  5.27744E-15  1.88461E+02  1.11884E-09  1.0E-07
  4.000E-04  1.21847E-11  5.27744E-15  1.88461E+02  1.19342E-09  1.0E-07
  4.250E-04  1.37554E-11  5.27744E-15  1.88461E+02  1.26801E-09  1.0E-07
  4.500E-04  1.54213E-11  5.27744E-15  1.88461E+02  1.34260E-09  1.0E-07
  4.750E-04  1.71823E-11  5.27744E-15  1.88461E+02  1.41719E-09  1.0E-07
  5.000E-04  1.90386E-11  5.27744E-15  1.88461E+02  1.49178E-09  1.0E-07
  5.250E-04  2.09900E-11  5.27744E-15  1.88461E+02  1.56637E-09  1.0E-07
  5.500E-04  2.30367E-11  5.27744E-15  1.88461E+02  1.64096E-09  1.0E-07
  5.750E-04  2.51785E-11  5.27744E-15  1.88461E+02  1.71555E-09  1.0E-07
  6.000E-04  2.74156E-11  5.27744E-15  1.88461E+02  1.79014E-09  1.0E-07
  6.250E-04  2.97478E-11  5.27744E-15  1.88461E+02  1.86473E-09  1.0E-07
  6.500E-04  3.21752E-11  5.27744E-15  1.88461E+02  1.93931E-09  1.0E-07
  6.750E-04  3.46979E-11  5.27744E-15  1.88461E+02  2.01390E-09  1.0E-07
  7.000E-04  3.73157E-11  5.27744E-15  1.88461E+02  2.08849E-09  1.0E-07
  7.250E-04  4.00286E-11  5.27744E-15  1.88461E+02  2.16308E-09  1.0E-07
  7.500E-04  4.28368E-11  5.27744E-15  1.88461E+02  2.23767E-09  1.0E-07
  7.750E-04  4.57402E-11  5.27744E-15  1.88461E+02  2.31226E-09  1.0E-07
  8.000E-04  4.87388E-11  5.27744E-15  1.88461E+02  2.38685E-09  1.0E-07
  8.250E-04  5.18325E-11  5.27744E-15  1.88461E+02  2.46144E-09  1.0E-07
  8.500E-04  5.50215E-11  5.27744E-15  1.88461E+02  2.53603E-09  1.0E-07
  8.750E-04  5.83057E-11  5.27744E-15  1.88461E+02  2.61061E-09  1.0E-07
  9.000E-04  6.16850E-11  5.27744E-15  1.88461E+02  2.68520E-09  1.0E-07
  9.250E-04  6.51595E-11  5.27744E-15  1.88461E+02  2.75979E-09  1.0E-07
  9.500E-04  6.87293E-11  5.27744E-15  1.88461E+02  2.83438E-09  1.0E-07
  9.750E-04  7.23943E-11  5.27744E-15  1.88461E+02  2.90897E-09  1.0E-07
  1.000E-03  7.61544E-11  5.27744E-15  1.88461E+02  2.98356E-09  1.0E-07
  1.250E-03  1.18991E-10  5.27744E-15  1.88461E+02  3.72945E-09  1.0E-07
  1.500E-03  1.71347E-10  5.27744E-15  1.88461E+02  4.47534E-09  1.0E-07
  1.750E-03  2.33223E-10  5.27744E-15  1.88461E+02  5.22123E-09  1.0E-07
  2.000E-03  3.04617E-10  5.27744E-15  1.88461E+02  5.96712E-09  1.0E-07
  2.250E-03  3.85531E-10  5.27744E-15  1.88461E+02  6.71301E-09  1.0E-07
  2.500E-03  4.75965E-10  5.27744E-15  1.88461E+02  7.45889E-09  1.0E-07
  2.750E-03  5.75917E-10  5.27744E-15  1.88461E+02  8.20478E-09  1.0E-07
  3.000E-03  6.85389E-10  5.27744E-15  1.88461E+02  8.95067E-09  1.0E-07
  3.250E-03  8.04380E-10  5.27744E-15  1.88461E+02  9.69656E-09  1.0E-07
  3.500E-03  9.32891E-10  5.27743E-15  1.88461E+02  1.04424E-08  1.0E-07
  3.750E-03  1.07092E-09  5.27743E-15  1.88461E+02  1.11883E-08  1.0E-07
  4.000E-03  1.21847E-09  5.27743E-15  1.88461E+02  1.19342E-08  1.0E-07
  4.250E-03  1.37554E-09  5.27743E-15  1.88461E+02  1.26801E-08  1.0E-07
  4.500E-03  1.54213E-09  5.27743E-15  1.88460E+02  1.34260E-08  1.0E-07
  4.750E-03  1.71823E-09  5.27743E-15  1.88460E+02  1.41719E-08  1.0E-07
  5.000E-03  1.90386E-09  5.27743E-15  1.88460E+02  1.49178E-08  1.0E-07
  5.250E-03  2.09900E-09  5.27743E-15  1.88460E+02  1.56636E-08  1.0E-07
  5.500E-03  2.30367E-09  5.27743E-15  1.88460E+02  1.64095E-08  1.0E-07
  5.750E-03  2.51785E-09  5.27742E-15  1.88460E+02  1.71554E-08  1.0E-07
  6.000E-03  2.74156E-09  5.27742E-15  1.88460E+02  1.79013E-08  1.0E-07
  6.250E-03  2.97478E-09  5.27742E-15  1.88460E+02  1.86472E-08  1.0E-07
  6.500E-03  3.21752E-09  5.27742E-15  1.88460E+02  1.93930E-08  1.0E-07
  6.750E-03  3.46978E-09  5.27742E-15  1.88460E+02  2.01389E-08  1.0E-07
  7.000E-03  3.73156E-09  5.27742E-15  1.88460E+02  2.08848E-08  1.0E-07
  7.250E-03  4.00286E-09  5.27741E-15  1.88460E+02  2.16307E-08  1.0E-07
  7.500E-03  4.28368E-09  5.27741E-15  1.88460E+02  2.23765E-08  1.0E-07
  7.750E-03  4.57402E-09  5.27741E-15  1.88460E+02  2.31224E-08  1.0E-07
  8.000E-03  4.87388E-09  5.27741E-15  1.88460E+02  2.38683E-08  1.0E-07
  8.250E-03  5.18326E-09  5.27741E-15  1.88460E+02  2.46142E-08  1.0E-07
  8.500E-03  5.50215E-09  5.27740E-15  1.88459E+02  2.53600E-08  1.0E-07
  8.750E-03  5.83057E-09  5.27740E-15  1.88459E+02  2.61059E-08  1.0E-07
  9.000E-03  6.16850E-09  5.27740E-15  1.88459E+02  2.68518E-08  1.0E-07
  9.250E-03  6.51596E-09  5.27740E-15  1.88459E+02  2.75976E-08  1.0E-07
  9.500E-03  6.87293E-09  5.27739E-15  1.88459E+02  2.83435E-08  1.0E-07
  9.750E-03  7.23942E-09  5.27739E-15  1.88459E+02  2.90894E-08  1.0E-07
  1.000E-02  7.61544E-09  5.27739E-15  1.88459E+02  2.98352E-08  1.0E-07
  1.250E-02  1.18991E-08  5.27736E-15  1.88458E+02  3.72937E-08  1.0E-07
  1.500E-02  1.71347E-08  5.27732E-15  1.88457E+02  4.47521E-08  1.0E-07
  1.750E-02  2.33223E-08  5.27728E-15  1.88455E+02  5.22102E-08  1.0E-07
  2.000E-02  3.04617E-08  5.27723E-15  1.88453E+02  5.96681E-08  1.0E-07
  2.250E-02  3.85531E-08  5.27718E-15  1.88451E+02  6.71257E-08  1.0E-07
  2.500E-02  4.75965E-08  5.27711E-15  1.88449E+02  7.45829E-08  1.0E-07
  2.750E-02  5.75917E-08  5.27705E-15  1.88447E+02  8.20398E-08  1.0E-07
  3.000E-02  6.85389E-08  5.27697E-15  1.88444E+02  8.94963E-08  1.0E-07
  3.250E-02  8.04380E-08  5.27689E-15  1.88441E+02  9.69524E-08  1.0E-07
  3.500E-02  9.32891E-08  5.27680E-15  1.88438E+02  1.04408E-07  1.0E-07
  3.750E-02  1.07092E-07  5.27671E-15  1.88435E+02  1.11863E-07  1.0E-07
  4.000E-02  1.21847E-07  5.27661E-15  1.88431E+02  1.19318E-07  1.0E-07
  4.250E-02  1.37554E-07  5.27650E-15  1.88427E+02  1.26772E-07  1.0E-07
  4.500E-02  1.54213E-07  5.27638E-15  1.88423E+02  1.34225E-07  1.0E-07
  4.750E-02  1.71823E-07  5.27626E-15  1.88419E+02  1.41678E-07  1.0E-07
  5.000E-02  1.90386E-07  5.27614E-15  1.88414E+02  1.49129E-07  1.0E-07
  5.250E-02  2.09900E-07  5.27600E-15  1.88409E+02  1.56581E-07  1.0E-07
  5.500E-02  2.30367E-07  5.27586E-15  1.88404E+02  1.64031E-07  1.0E-07
  5.750E-02  2.51785E-07  5.27572E-15  1.88399E+02  1.71481E-07  1.0E-07
  6.000E-02  2.74156E-07  5.27556E-15  1.88394E+02  1.78930E-07  1.0E-07
  6.250E-02  2.97478E-07  5.27540E-15  1.88388E+02  1.86378E-07  1.0E-07
  6.500E-02  3.21752E-07  5.27524E-15  1.88382E+02  1.93825E-07  1.0E-07
  6.750E-02  3.46978E-07  5.27506E-15  1.88376E+02  2.01271E-07  1.0E-07
  7.000E-02  3.73156E-07  5.27488E-15  1.88370E+02  2.08716E-07  1.0E-07
  7.250E-02  4.00286E-07  5.27470E-15  1.88363E+02  2.16160E-07  1.0E-07
  7.500E-02  4.28368E-07  5.27451E-15  1.88356E+02  2.23603E-07  1.0E-07
  7.750E-02  4.57402E-07  5.27431E-15  1.88349E+02  2.31045E-07  1.0E-07
  8.000E-02  4.87388E-07  5.27410E-15  1.88342E+02  2.38486E-07  1.0E-07
  8.250E-02  5.18325E-07  5.27389E-15  1.88334E+02  2.45926E-07  1.0E-07
  8.500E-02  5.50215E-07  5.27367E-15  1.88326E+02  2.53364E-07  1.0E-07
  8.750E-02  5.83057E-07  5.27345E-15  1.88318E+02  2.60801E-07  1.0E-07
  9.000E-02  6.16850E-07  5.27322E-15  1.88310E+02  2.68237E-07  1.0E-07
  9.250E-02  6.51596E-07  5.27298E-15  1.88301E+02  2.75672E-07  1.0E-07
  9.500E-02  6.87293E-07  5.27273E-15  1.88293E+02  2.83105E-07  1.0E-07
  9.750E-02  7.23942E-07  5.27248E-15  1.88284E+02  2.90537E-07  1.0E-07
  1.000E-01  7.61543E-07  5.27223E-15  1.88275E+02  2.97968E-07  1.0E-07
  1.250E-01  1.18991E-06  5.26930E-15  1.88170E+02  3.72186E-07  1.0E-07
  1.500E-01  1.71347E-06  5.26572E-15  1.88042E+02  4.46222E-07  1.0E-07
  1.750E-01  2.33223E-06  5.26149E-15  1.87891E+02  5.20039E-07  1.0E-07
  2.000E-01  3.04617E-06  5.25663E-15  1.87718E+02  5.93600E-07  1.0E-07
  2.250E-01  3.85531E-06  5.25112E-15  1.87521E+02  6.66867E-07  1.0E-07
  2.500E-01  4.75964E-06  5.24497E-15  1.87301E+02  7.39804E-07  1.0E-07
  2.750E-01  5.75916E-06  5.23819E-15  1.87059E+02  8.12373E-07  1.0E-07
  3.000E-01  6.85388E-06  5.23079E-15  1.86795E+02  8.84535E-07  1.0E-07
  3.250E-01  8.04378E-06  5.22275E-15  1.86508E+02  9.56254E-07  1.0E-07
  3.500E-01  9.32888E-06  5.21409E-15  1.86199E+02  1.02749E-06  1.0E-07
  3.750E-01  1.07092E-05  5.20482E-15  1.85868E+02  1.09820E-06  1.0E-07
  4.000E-01  1.21846E-05  5.19494E-15  1.85515E+02  1.16836E-06  1.0E-07
  4.250E-01  1.37553E-05  5.18445E-15  1.85140E+02  1.23791E-06  1.0E-07
  4.500E-01  1.54212E-05  5.17336E-15  1.84744E+02  1.30683E-06  1.0E-07
  4.750E-01  1.71822E-05  5.16167E-15  1.84327E+02  1.37506E-06  1.0E-07
  5.000E-01  1.90385E-05  5.14940E-15  1.83888E+02  1.44258E-06  1.0E-07
  5.250E-01  2.09899E-05  5.13655E-15  1.83429E+02  1.50933E-06  1.0E-07
  5.500E-01  2.30365E-05  5.12312E-15  1.82950E+02  1.57527E-06  1.0E-07
  5.750E-01  2.51783E-05  5.10913E-15  1.82450E+02  1.64037E-06  1.0E-07
  6.000E-01  2.74153E-05  5.09458E-15  1.81931E+02  1.70459E-06  1.0E-07
  6.250E-01  2.97475E-05  5.07948E-15  1.81391E+02  1.76787E-06  1.0E-07
  6.500E-01  3.21749E-05  5.06383E-15  1.80833E+02  1.83017E-06  1.0E-07
  6.750E-01  3.46974E-05  5.04765E-15  1.80255E+02  1.89145E-06  1.0E-07
  7.000E-01  3.73152E-05  5.03094E-15  1.79658E+02  1.95166E-06  1.0E-07
  7.250E-01  4.00281E-05  5.01372E-15  1.79043E+02  2.01077E-06  1.0E-07
  7.500E-01  4.28362E-05  4.99599E-15  1.78410E+02  2.06871E-06  1.0E-07
  7.750E-01  4.57395E-05  4.97776E-15  1.77759E+02  2.12544E-06  1.0E-07
  8.000E-01  4.87380E-05  4.95904E-15  1.77090E+02  2.18092E-06  1.0E-07
  8.250E-01  5.18317E-05  4.93983E-15  1.76405E+02  2.23510E-06  1.0E-07
  8.500E-01  5.50205E-05  4.92016E-15  1.75702E+02  2.28792E-06  1.0E-07
  8.750E-01  5.83045E-05  4.90003E-15  1.74983E+02  2.33934E-06  1.0E-07
  9.000E-01  6.16838E-05  4.87944E-15  1.74248E+02  2.38930E-06  1.0E-07
  9.250E-01  6.51582E-05  4.85842E-15  1.73497E+02  2.43776E-06  1.0E-07
  9.500E-01  6.87277E-05  4.83696E-15  1.72731E+02  2.48465E-06  1.0E-07
  9.750E-01  7.23925E-05  4.81509E-15  1.71950E+02  2.52993E-06  1.0E-07
  1.000E+00  7.61524E-05  4.79280E-15  1.71154E+02  2.57354E-06  1.0E-07
  1.100E+00  9.21439E-05  4.69978E-15  1.67832E+02  2.73015E-06  1.0E-07
  1.200E+00  1.09658E-04  4.60107E-15  1.64307E+02  2.85541E-06  1.0E-07
  1.300E+00  1.28695E-04  4.49738E-15  1.60604E+02  2.94532E-06  1.0E-07
  1.400E+00  1.49255E-04  4.38940E-15  1.56748E+02  2.99562E-06  1.0E-07
  1.500E+00  1.71338E-04  4.27784E-15  1.52764E+02  3.00175E-06  1.0E-07
  1.600E+00  1.94942E-04  4.16338E-15  1.48677E+02  2.95883E-06  1.0E-07
  1.700E+00  2.20070E-04  4.04667E-15  1.44509E+02  2.86166E-06  1.0E-07
  1.800E+00  2.46720E-04  3.92834E-15  1.40284E+02  2.70471E-06  1.0E-07
  1.900E+00  2.74892E-04  3.80900E-15  1.36022E+02  2.48211E-06  1.0E-07
  2.000E+00  3.04586E-04  3.68919E-15  1.31743E+02  2.18763E-06  1.0E-07
  2.100E+00  3.35803E-04  3.56944E-15  1.27467E+02  1.81467E-06  1.0E-07
  2.200E+00  3.68542E-04  3.45021E-15  1.23209E+02  1.35628E-06  1.0E-07
  2.300E+00  4.02802E-04  3.33194E-15  1.18986E+02  8.05143E-07  1.0E-07
  2.400E+00  4.38585E-04  3.21501E-15  1.14810E+02  0.00000E+00  1.0E-07
  2.500E+00  4.75889E-04  3.09976E-15  1.10694E+02 -6.06562E-07  1.0E-07
  2.600E+00  5.14715E-04  2.98648E-15  1.06649E+02 -1.48364E-06  1.0E-07
  2.700E+00  5.55063E-04  2.87544E-15  1.02684E+02 -2.48650E-06  1.0E-07
  2.800E+00  5.96931E-04  2.76685E-15  9.88058E+01 -3.62434E-06  1.0E-07
  2.900E+00  6.40321E-04  2.66088E-15  9.50219E+01 -4.90671E-06  1.0E-07
  3.000E+00  6.85233E-04  2.55770E-15  9.13371E+01 -6.34354E-06  1.0E-07
  3.100E+00  7.31665E-04  2.45740E-15  8.77555E+01 -7.94510E-06  1.0E-07
  3.200E+00  7.79618E-04  2.36009E-15  8.42803E+01 -9.72205E-06  1.0E-07
  3.300E+00  8.29092E-04  2.26581E-15  8.09136E+01 -1.16854E-05  1.0E-07
  3.400E+00  8.80086E-04  2.17461E-15  7.76566E+01 -1.38464E-05  1.0E-07
  3.500E+00  9.32601E-04  2.08649E-15  7.45099E+01 -1.62168E-05  1.0E-07
  3.600E+00  9.86636E-04  2.00146E-15  7.14736E+01 -1.88086E-05  1.0E-07
  3.700E+00  1.04219E-03  1.91950E-15  6.85468E+01 -2.16341E-05  1.0E-07
  3.800E+00  1.09927E-03  1.84058E-15  6.57284E+01 -2.47059E-05  1.0E-07
  3.900E+00  1.15786E-03  1.76465E-15  6.30169E+01 -2.80370E-05  1.0E-07
  4.000E+00  1.21797E-03  1.69166E-15  6.04103E+01 -3.16406E-05  1.0E-07
  4.100E+00  1.27961E-03  1.62155E-15  5.79065E+01 -3.55302E-05  1.0E-07
  4.200E+00  1.34276E-03  1.55424E-15  5.55030E+01 -3.97196E-05  1.0E-07
  4.300E+00  1.40743E-03  1.48967E-15  5.31972E+01 -4.42228E-05  1.0E-07
  4.400E+00  1.47362E-03  1.42776E-15  5.09862E+01 -4.90542E-05  1.0E-07
  4.500E+00  1.54133E-03  1.36842E-15  4.88672E+01 -5.42281E-05  1.0E-07
  4.600E+00  1.61056E-03  1.31158E-15  4.68373E+01 -5.97593E-05  1.0E-07
  4.700E+00  1.68131E-03  1.25714E-15  4.48934E+01 -6.56627E-05  1.0E-07
  4.800E+00  1.75357E-03  1.20503E-15  4.30325E+01 -7.19534E-05  1.0E-07
  4.900E+00  1.82735E-03  1.15516E-15  4.12516E+01 -7.86466E-05  1.0E-07
  5.000E+00  1.90265E-03  1.10745E-15  3.95476E+01 -8.57575E-05  1.0E-07
  5.100E+00  1.97947E-03  1.06180E-15  3.79177E+01 -9.33017E-05  1.0E-07
  5.200E+00  2.05780E-03  1.01815E-15  3.63589E+01 -1.01295E-04  1.0E-07
  5.300E+00  2.13765E-03  9.76415E-16  3.48684E+01 -1.09752E-04  1.0E-07
  5.400E+00  2.21902E-03  9.36508E-16  3.34433E+01 -1.18689E-04  1.0E-07
  5.500E+00  2.30190E-03  8.98357E-16  3.20809E+01 -1.28121E-04  1.0E-07
  5.600E+00  2.38630E-03  8.61890E-16  3.07786E+01 -1.38064E-04  1.0E-07
  5.700E+00  2.47222E-03  8.27033E-16  2.95339E+01 -1.48533E-04  1.0E-07
  5.800E+00  2.55965E-03  7.93718E-16  2.83442E+01 -1.59543E-04  1.0E-07
  5.900E+00  2.64859E-03  7.61877E-16  2.72071E+01 -1.71109E-04  1.0E-07
  6.000E+00  2.73905E-03  7.31447E-16  2.61204E+01 -1.83246E-04  1.0E-07
  6.100E+00  2.83103E-03  7.02364E-16  2.50819E+01 -1.95969E-04  1.0E-07
  6.200E+00  2.92452E-03  6.74568E-16  2.40893E+01 -2.09291E-04  1.0E-07
  6.300E+00  3.01952E-03  6.48003E-16  2.31406E+01 -2.23227E-04  1.0E-07
  6.400E+00  3.11604E-03  6.22614E-16  2.22339E+01 -2.37789E-04  1.0E-07
  6.500E+00  3.21407E-03  5.98347E-16  2.13673E+01 -2.52990E-04  1.0E-07
  6.600E+00  3.31362E-03  5.75151E-16  2.05390E+01 -2.68843E-04  1.0E-07
  6.700E+00  3.41468E-03  5.52979E-16  1.97472E+01 -2.85359E-04  1.0E-07
  6.800E+00  3.51725E-03  5.31783E-16  1.89903E+01 -3.02550E-04  1.0E-07
  6.900E+00  3.62133E-03  5.11520E-16  1.82667E+01 -3.20424E-04  1.0E-07
  7.000E+00  3.72692E-03  4.92147E-16  1.75749E+01 -3.38992E-04  1.0E-07
  7.100E+00  3.83403E-03  4.73623E-16  1.69134E+01 -3.58262E-04  1.0E-07
  7.200E+00  3.94265E-03  4.55910E-16  1.62808E+01 -3.78241E-04  1.0E-07
  7.300E+00  4.05278E-03  4.38970E-16  1.56759E+01 -3.98936E-04  1.0E-07
  7.400E+00  4.16442E-03  4.22768E-16  1.50973E+01 -4.20354E-04  1.0E-07
  7.500E+00  4.27757E-03  4.07271E-16  1.45439E+01 -4.42497E-04  1.0E-07
  7.600E+00  4.39223E-03  3.92446E-16  1.40145E+01 -4.65369E-04  1.0E-07
  7.700E+00  4.50840E-03  3.78263E-16  1.35080E+01 -4.88972E-04  1.0E-07
  7.800E+00  4.62608E-03  3.64692E-16  1.30234E+01 -5.13307E-04  1.0E-07
  7.900E+00  4.74527E-03  3.51705E-16  1.25596E+01 -5.38373E-04  1.0E-07
  8.000E+00  4.86597E-03  3.39275E-16  1.21157E+01 -5.64167E-04  1.0E-07
  8.100E+00  4.98817E-03  3.27377E-16  1.16909E+01 -5.90687E-04  1.0E-07
  8.200E+00  5.11188E-03  3.15987E-16  1.12841E+01 -6.17927E-04  1.0E-07
  8.300E+00  5.23711E-03  3.05082E-16  1.08947E+01 -6.45881E-04  1.0E-07
  8.400E+00  5.36383E-03  2.94639E-16  1.05218E+01 -6.74540E-04  1.0E-07
  8.500E+00  5.49207E-03  2.84637E-16  1.01646E+01 -7.03895E-04  1.0E-07
  8.600E+00  5.62181E-03  2.75057E-16  9.82247E+00 -7.33934E-04  1.0E-07
  8.700E+00  5.75306E-03  2.65879E-16  9.49470E+00 -7.64644E-04  1.0E-07
  8.800E+00  5.88581E-03  2.57084E-16  9.18064E+00 -7.96011E-04  1.0E-07
  8.900E+00  6.02007E-03  2.48656E-16  8.87967E+00 -8.28018E-04  1.0E-07
  9.000E+00  6.15583E-03  2.40578E-16  8.59118E+00 -8.60648E-04  1.0E-07
  9.100E+00  6.29310E-03  2.32833E-16  8.31461E+00 -8.93880E-04  1.0E-07
  9.200E+00  6.43187E-03  2.25407E-16  8.04943E+00 -9.27693E-04  1.0E-07
  9.300E+00  6.57214E-03  2.18285E-16  7.79511E+00 -9.62064E-04  1.0E-07
  9.400E+00  6.71392E-03  2.11454E-16  7.55117E+00 -9.96969E-04  1.0E-07
  9.500E+00  6.85720E-03  2.04901E-16  7.31713E+00 -1.03238E-03  1.0E-07
  9.600E+00  7.00198E-03  1.98612E-16  7.09255E+00 -1.06827E-03  1.0E-07
  9.700E+00  7.14827E-03  1.92576E-16  6.87701E+00 -1.10462E-03  1.0E-07
  9.800E+00  7.29605E-03  1.86782E-16  6.67009E+00 -1.14138E-03  1.0E-07
  9.900E+00  7.44534E-03  1.81218E-16  6.47141E+00 -1.17853E-03  1.0E-07
  1.000E+01  7.59612E-03  1.75875E-16  6.28060E+00 -1.21604E-03  1.0E-07
  1.025E+01  7.97965E-03  1.63417E-16  5.83572E+00 -1.31112E-03  1.0E-07
  1.050E+01  8.37255E-03  1.52133E-16  5.43278E+00 -1.40763E-03  1.0E-07
  1.075E+01  8.77480E-03  1.41898E-16  5.06726E+00 -1.50495E-03  1.0E-07
  1.100E+01  9.18641E-03  1.32597E-16  4.73514E+00 -1.60243E-03  1.0E-07
  1.125E+01  9.60736E-03  1.24133E-16  4.43286E+00 -1.69940E-03  1.0E-07
  1.150E+01  1.00376E-02  1.16415E-16  4.15726E+00 -1.79517E-03  1.0E-07
  1.175E+01  1.04773E-02  1.09366E-16  3.90552E+00 -1.88905E-03  1.0E-07
  1.200E+01  1.09262E-02  1.02914E-16  3.67513E+00 -1.98034E-03  1.0E-07
  1.225E+01  1.13844E-02  9.69986E-17  3.46388E+00 -2.06834E-03  1.0E-07
  1.250E+01  1.18520E-02  9.15635E-17  3.26979E+00 -2.15238E-03  1.0E-07
  1.275E+01  1.23288E-02  8.65600E-17  3.09111E+00 -2.23177E-03  1.0E-07
  1.300E+01  1.28150E-02  8.19443E-17  2.92628E+00 -2.30588E-03  1.0E-07
  1.325E+01  1.33104E-02  7.76776E-17  2.77392E+00 -2.37408E-03  1.0E-07
  1.350E+01  1.38150E-02  7.37256E-17  2.63279E+00 -2.43575E-03  1.0E-07
  1.375E+01  1.43290E-02  7.00577E-17  2.50181E+00 -2.49031E-03  1.0E-07
  1.400E+01  1.48521E-02  6.66466E-17  2.37999E+00 -2.53722E-03  1.0E-07
  1.425E+01  1.53845E-02  6.34681E-17  2.26649E+00 -2.57592E-03  1.0E-07
  1.450E+01  1.59262E-02  6.05008E-17  2.16052E+00 -2.60589E-03  1.0E-07
  1.475E+01  1.64770E-02  5.77255E-17  2.06141E+00 -2.62666E-03  1.0E-07
  1.500E+01  1.70371E-02  5.51251E-17  1.96855E+00 -2.63773E-03  1.0E-07
  1.525E+01  1.76063E-02  5.26846E-17  1.88140E+00 -2.63864E-03  1.0E-07
  1.550E+01  1.81848E-02  5.03903E-17  1.79947E+00 -2.62896E-03  1.0E-07
