 #
 # Subroutine ELSEPA. Elastic scattering of electrons and positrons
 #                    by neutral atoms and positive ions
 #
 # Projectile: electron
 # Kinetic energy = 7.00000E+02 eV = 2.57245E+01 a.u.
 #
 # Element: Hg,  Z =  80,  atomic weight = 2.00590E+02 g/mol
 #
 # Nuclear model: Fermi distribution
 #                Average radius = 6.26355E-13 cm
 #                Skin thickness = 5.46000E-14 cm
 #
 # Number of electrons = 80
 #
 # Electron density: Read from file z_080.den   
 #                   Number of data points =  763
 #                   Volume integral = 8.00000E+01
 #
 # Thomas-Fermi exchange potential
 #
 # Total elastic cross section = 3.07630E-16 cm**2 = 1.09857E+01 a0**2
 # 1st transport cross section = 8.75351E-17 cm**2 = 3.12594E+00 a0**2
 # 2nd transport cross section = 9.37874E-17 cm**2 = 3.34921E+00 a0**2
 #
 #
 # Differential cross section:                       MU=(1-COS(THETA))/2
 #
 #  THETA        MU          DCS          DCS        Sherman      error
 #  (deg)                 (cm**2/sr)   (a0**2/sr)    function
 #----------------------------------------------------------------------
  0.000E+00  0.00000E+00  2.78518E-15  9.94607E+01  0.00000E+00  1.0E-07
  1.000E-04  7.61557E-13  2.78518E-15  9.94607E+01 -6.04381E-09  1.0E-07
  1.250E-04  1.18994E-12  2.78518E-15  9.94607E+01 -7.55476E-09  1.0E-07
  1.500E-04  1.71346E-12  2.78518E-15  9.94607E+01 -9.06571E-09  1.0E-07
  1.750E-04  2.33225E-12  2.78518E-15  9.94607E+01 -1.05767E-08  1.0E-07
  2.000E-04  3.04617E-12  2.78518E-15  9.94607E+01 -1.20876E-08  1.0E-07
  2.250E-04  3.85530E-12  2.78518E-15  9.94607E+01 -1.35986E-08  1.0E-07
  2.500E-04  4.75964E-12  2.78518E-15  9.94607E+01 -1.51095E-08  1.0E-07
  2.750E-04  5.75917E-12  2.78518E-15  9.94607E+01 -1.66205E-08  1.0E-07
  3.000E-04  6.85391E-12  2.78518E-15  9.94607E+01 -1.81314E-08  1.0E-07
  3.250E-04  8.04379E-12  2.78518E-15  9.94607E+01 -1.96424E-08  1.0E-07
  3.500E-04  9.32893E-12  2.78518E-15  9.94607E+01 -2.11533E-08  1.0E-07
  3.750E-04  1.07092E-11  2.78518E-15  9.94607E+01 -2.26643E-08  1.0E-07
  4.000E-04  1.21847E-11  2.78518E-15  9.94607E+01 -2.41752E-08  1.0E-07
  4.250E-04  1.37554E-11  2.78518E-15  9.94607E+01 -2.56862E-08  1.0E-07
  4.500E-04  1.54213E-11  2.78518E-15  9.94607E+01 -2.71971E-08  1.0E-07
  4.750E-04  1.71823E-11  2.78518E-15  9.94607E+01 -2.87081E-08  1.0E-07
  5.000E-04  1.90386E-11  2.78518E-15  9.94607E+01 -3.02190E-08  1.0E-07
  5.250E-04  2.09900E-11  2.78518E-15  9.94607E+01 -3.17300E-08  1.0E-07
  5.500E-04  2.30367E-11  2.78518E-15  9.94607E+01 -3.32409E-08  1.0E-07
  5.750E-04  2.51785E-11  2.78518E-15  9.94607E+01 -3.47519E-08  1.0E-07
  6.000E-04  2.74156E-11  2.78518E-15  9.94607E+01 -3.62628E-08  1.0E-07
  6.250E-04  2.97478E-11  2.78518E-15  9.94607E+01 -3.77738E-08  1.0E-07
  6.500E-04  3.21752E-11  2.78518E-15  9.94607E+01 -3.92847E-08  1.0E-07
  6.750E-04  3.46979E-11  2.78518E-15  9.94607E+01 -4.07957E-08  1.0E-07
  7.000E-04  3.73157E-11  2.78518E-15  9.94607E+01 -4.23066E-08  1.0E-07
  7.250E-04  4.00286E-11  2.78518E-15  9.94607E+01 -4.38176E-08  1.0E-07
  7.500E-04  4.28368E-11  2.78518E-15  9.94607E+01 -4.53285E-08  1.0E-07
  7.750E-04  4.57402E-11  2.78518E-15  9.94607E+01 -4.68395E-08  1.0E-07
  8.000E-04  4.87388E-11  2.78518E-15  9.94607E+01 -4.83505E-08  1.0E-07
  8.250E-04  5.18325E-11  2.78518E-15  9.94607E+01 -4.98614E-08  1.0E-07
  8.500E-04  5.50215E-11  2.78518E-15  9.94607E+01 -5.13724E-08  1.0E-07
  8.750E-04  5.83057E-11  2.78518E-15  9.94607E+01 -5.28833E-08  1.0E-07
  9.000E-04  6.16850E-11  2.78518E-15  9.94607E+01 -5.43943E-08  1.0E-07
  9.250E-04  6.51595E-11  2.78518E-15  9.94607E+01 -5.59052E-08  1.0E-07
  9.500E-04  6.87293E-11  2.78518E-15  9.94607E+01 -5.74162E-08  1.0E-07
  9.750E-04  7.23943E-11  2.78518E-15  9.94607E+01 -5.89271E-08  1.0E-07
  1.000E-03  7.61544E-11  2.78518E-15  9.94607E+01 -6.04381E-08  1.0E-07
  1.250E-03  1.18991E-10  2.78518E-15  9.94607E+01 -7.55476E-08  1.0E-07
  1.500E-03  1.71347E-10  2.78518E-15  9.94607E+01 -9.06571E-08  1.0E-07
  1.750E-03  2.33223E-10  2.78518E-15  9.94607E+01 -1.05767E-07  1.0E-07
  2.000E-03  3.04617E-10  2.78518E-15  9.94607E+01 -1.20876E-07  1.0E-07
  2.250E-03  3.85531E-10  2.78518E-15  9.94607E+01 -1.35986E-07  1.0E-07
  2.500E-03  4.75965E-10  2.78518E-15  9.94607E+01 -1.51095E-07  1.0E-07
  2.750E-03  5.75917E-10  2.78518E-15  9.94607E+01 -1.66205E-07  1.0E-07
  3.000E-03  6.85389E-10  2.78518E-15  9.94607E+01 -1.81314E-07  1.0E-07
  3.250E-03  8.04380E-10  2.78518E-15  9.94607E+01 -1.96424E-07  1.0E-07
  3.500E-03  9.32891E-10  2.78518E-15  9.94607E+01 -2.11533E-07  1.0E-07
  3.750E-03  1.07092E-09  2.78518E-15  9.94607E+01 -2.26643E-07  1.0E-07
  4.000E-03  1.21847E-09  2.78518E-15  9.94607E+01 -2.41752E-07  1.0E-07
  4.250E-03  1.37554E-09  2.78518E-15  9.94607E+01 -2.56862E-07  1.0E-07
  4.500E-03  1.54213E-09  2.78518E-15  9.94606E+01 -2.71971E-07  1.0E-07
  4.750E-03  1.71823E-09  2.78518E-15  9.94606E+01 -2.87081E-07  1.0E-07
  5.000E-03  1.90386E-09  2.78518E-15  9.94606E+01 -3.02190E-07  1.0E-07
  5.250E-03  2.09900E-09  2.78518E-15  9.94606E+01 -3.17300E-07  1.0E-07
  5.500E-03  2.30367E-09  2.78518E-15  9.94606E+01 -3.32410E-07  1.0E-07
  5.750E-03  2.51785E-09  2.78518E-15  9.94606E+01 -3.47519E-07  1.0E-07
  6.000E-03  2.74156E-09  2.78518E-15  9.94606E+01 -3.62629E-07  1.0E-07
  6.250E-03  2.97478E-09  2.78518E-15  9.94606E+01 -3.77738E-07  1.0E-07
  6.500E-03  3.21752E-09  2.78518E-15  9.94606E+01 -3.92848E-07  1.0E-07
  6.750E-03  3.46978E-09  2.78518E-15  9.94606E+01 -4.07957E-07  1.0E-07
  7.000E-03  3.73156E-09  2.78518E-15  9.94606E+01 -4.23067E-07  1.0E-07
  7.250E-03  4.00286E-09  2.78518E-15  9.94606E+01 -4.38176E-07  1.0E-07
  7.500E-03  4.28368E-09  2.78518E-15  9.94606E+01 -4.53286E-07  1.0E-07
  7.750E-03  4.57402E-09  2.78518E-15  9.94606E+01 -4.68395E-07  1.0E-07
  8.000E-03  4.87388E-09  2.78518E-15  9.94606E+01 -4.83505E-07  1.0E-07
  8.250E-03  5.18326E-09  2.78518E-15  9.94606E+01 -4.98615E-07  1.0E-07
  8.500E-03  5.50215E-09  2.78518E-15  9.94605E+01 -5.13724E-07  1.0E-07
  8.750E-03  5.83057E-09  2.78518E-15  9.94605E+01 -5.28834E-07  1.0E-07
  9.000E-03  6.16850E-09  2.78518E-15  9.94605E+01 -5.43943E-07  1.0E-07
  9.250E-03  6.51596E-09  2.78518E-15  9.94605E+01 -5.59053E-07  1.0E-07
  9.500E-03  6.87293E-09  2.78518E-15  9.94605E+01 -5.74163E-07  1.0E-07
  9.750E-03  7.23942E-09  2.78518E-15  9.94605E+01 -5.89272E-07  1.0E-07
  1.000E-02  7.61544E-09  2.78518E-15  9.94605E+01 -6.04382E-07  1.0E-07
  1.250E-02  1.18991E-08  2.78517E-15  9.94604E+01 -7.55478E-07  1.0E-07
  1.500E-02  1.71347E-08  2.78517E-15  9.94603E+01 -9.06575E-07  1.0E-07
  1.750E-02  2.33223E-08  2.78517E-15  9.94601E+01 -1.05767E-06  1.0E-07
  2.000E-02  3.04617E-08  2.78516E-15  9.94599E+01 -1.20877E-06  1.0E-07
  2.250E-02  3.85531E-08  2.78516E-15  9.94597E+01 -1.35987E-06  1.0E-07
  2.500E-02  4.75965E-08  2.78515E-15  9.94595E+01 -1.51097E-06  1.0E-07
  2.750E-02  5.75917E-08  2.78514E-15  9.94592E+01 -1.66207E-06  1.0E-07
  3.000E-02  6.85389E-08  2.78513E-15  9.94590E+01 -1.81317E-06  1.0E-07
  3.250E-02  8.04380E-08  2.78513E-15  9.94587E+01 -1.96427E-06  1.0E-07
  3.500E-02  9.32891E-08  2.78512E-15  9.94583E+01 -2.11538E-06  1.0E-07
  3.750E-02  1.07092E-07  2.78511E-15  9.94580E+01 -2.26648E-06  1.0E-07
  4.000E-02  1.21847E-07  2.78510E-15  9.94576E+01 -2.41759E-06  1.0E-07
  4.250E-02  1.37554E-07  2.78509E-15  9.94572E+01 -2.56870E-06  1.0E-07
  4.500E-02  1.54213E-07  2.78507E-15  9.94568E+01 -2.71981E-06  1.0E-07
  4.750E-02  1.71823E-07  2.78506E-15  9.94563E+01 -2.87092E-06  1.0E-07
  5.000E-02  1.90386E-07  2.78505E-15  9.94559E+01 -3.02204E-06  1.0E-07
  5.250E-02  2.09900E-07  2.78503E-15  9.94554E+01 -3.17315E-06  1.0E-07
  5.500E-02  2.30367E-07  2.78502E-15  9.94549E+01 -3.32427E-06  1.0E-07
  5.750E-02  2.51785E-07  2.78500E-15  9.94543E+01 -3.47539E-06  1.0E-07
  6.000E-02  2.74156E-07  2.78499E-15  9.94537E+01 -3.62651E-06  1.0E-07
  6.250E-02  2.97478E-07  2.78497E-15  9.94532E+01 -3.77764E-06  1.0E-07
  6.500E-02  3.21752E-07  2.78495E-15  9.94525E+01 -3.92877E-06  1.0E-07
  6.750E-02  3.46978E-07  2.78494E-15  9.94519E+01 -4.07990E-06  1.0E-07
  7.000E-02  3.73156E-07  2.78492E-15  9.94512E+01 -4.23103E-06  1.0E-07
  7.250E-02  4.00286E-07  2.78490E-15  9.94506E+01 -4.38216E-06  1.0E-07
  7.500E-02  4.28368E-07  2.78488E-15  9.94498E+01 -4.53330E-06  1.0E-07
  7.750E-02  4.57402E-07  2.78486E-15  9.94491E+01 -4.68444E-06  1.0E-07
  8.000E-02  4.87388E-07  2.78484E-15  9.94484E+01 -4.83559E-06  1.0E-07
  8.250E-02  5.18325E-07  2.78482E-15  9.94476E+01 -4.98674E-06  1.0E-07
  8.500E-02  5.50215E-07  2.78479E-15  9.94468E+01 -5.13789E-06  1.0E-07
  8.750E-02  5.83057E-07  2.78477E-15  9.94459E+01 -5.28904E-06  1.0E-07
  9.000E-02  6.16850E-07  2.78475E-15  9.94451E+01 -5.44020E-06  1.0E-07
  9.250E-02  6.51596E-07  2.78472E-15  9.94442E+01 -5.59136E-06  1.0E-07
  9.500E-02  6.87293E-07  2.78470E-15  9.94433E+01 -5.74253E-06  1.0E-07
  9.750E-02  7.23942E-07  2.78467E-15  9.94424E+01 -5.89370E-06  1.0E-07
  1.000E-01  7.61543E-07  2.78464E-15  9.94414E+01 -6.04487E-06  1.0E-07
  1.250E-01  1.18991E-06  2.78434E-15  9.94306E+01 -7.55683E-06  1.0E-07
  1.500E-01  1.71347E-06  2.78397E-15  9.94173E+01 -9.06930E-06  1.0E-07
  1.750E-01  2.33223E-06  2.78353E-15  9.94017E+01 -1.05824E-05  1.0E-07
  2.000E-01  3.04617E-06  2.78303E-15  9.93836E+01 -1.20961E-05  1.0E-07
  2.250E-01  3.85531E-06  2.78245E-15  9.93632E+01 -1.36107E-05  1.0E-07
  2.500E-01  4.75964E-06  2.78181E-15  9.93403E+01 -1.51261E-05  1.0E-07
  2.750E-01  5.75916E-06  2.78111E-15  9.93151E+01 -1.66426E-05  1.0E-07
  3.000E-01  6.85388E-06  2.78033E-15  9.92874E+01 -1.81601E-05  1.0E-07
  3.250E-01  8.04378E-06  2.77949E-15  9.92574E+01 -1.96789E-05  1.0E-07
  3.500E-01  9.32888E-06  2.77858E-15  9.92250E+01 -2.11989E-05  1.0E-07
  3.750E-01  1.07092E-05  2.77761E-15  9.91901E+01 -2.27203E-05  1.0E-07
  4.000E-01  1.21846E-05  2.77657E-15  9.91530E+01 -2.42433E-05  1.0E-07
  4.250E-01  1.37553E-05  2.77546E-15  9.91134E+01 -2.57678E-05  1.0E-07
  4.500E-01  1.54212E-05  2.77428E-15  9.90714E+01 -2.72940E-05  1.0E-07
  4.750E-01  1.71822E-05  2.77304E-15  9.90271E+01 -2.88220E-05  1.0E-07
  5.000E-01  1.90385E-05  2.77173E-15  9.89804E+01 -3.03520E-05  1.0E-07
  5.250E-01  2.09899E-05  2.77036E-15  9.89314E+01 -3.18839E-05  1.0E-07
  5.500E-01  2.30365E-05  2.76892E-15  9.88800E+01 -3.34179E-05  1.0E-07
  5.750E-01  2.51783E-05  2.76742E-15  9.88262E+01 -3.49541E-05  1.0E-07
  6.000E-01  2.74153E-05  2.76585E-15  9.87701E+01 -3.64926E-05  1.0E-07
  6.250E-01  2.97475E-05  2.76421E-15  9.87117E+01 -3.80335E-05  1.0E-07
  6.500E-01  3.21749E-05  2.76251E-15  9.86509E+01 -3.95770E-05  1.0E-07
  6.750E-01  3.46974E-05  2.76074E-15  9.85878E+01 -4.11230E-05  1.0E-07
  7.000E-01  3.73152E-05  2.75891E-15  9.85224E+01 -4.26717E-05  1.0E-07
  7.250E-01  4.00281E-05  2.75701E-15  9.84547E+01 -4.42233E-05  1.0E-07
  7.500E-01  4.28362E-05  2.75505E-15  9.83846E+01 -4.57777E-05  1.0E-07
  7.750E-01  4.57395E-05  2.75302E-15  9.83123E+01 -4.73352E-05  1.0E-07
  8.000E-01  4.87380E-05  2.75093E-15  9.82376E+01 -4.88957E-05  1.0E-07
  8.250E-01  5.18317E-05  2.74878E-15  9.81607E+01 -5.04595E-05  1.0E-07
  8.500E-01  5.50205E-05  2.74656E-15  9.80815E+01 -5.20266E-05  1.0E-07
  8.750E-01  5.83045E-05  2.74428E-15  9.80000E+01 -5.35971E-05  1.0E-07
  9.000E-01  6.16838E-05  2.74194E-15  9.79163E+01 -5.51712E-05  1.0E-07
  9.250E-01  6.51582E-05  2.73953E-15  9.78303E+01 -5.67488E-05  1.0E-07
  9.500E-01  6.87277E-05  2.73706E-15  9.77421E+01 -5.83302E-05  1.0E-07
  9.750E-01  7.23925E-05  2.73452E-15  9.76516E+01 -5.99154E-05  1.0E-07
  1.000E+00  7.61524E-05  2.73193E-15  9.75589E+01 -6.15045E-05  1.0E-07
  1.100E+00  9.21439E-05  2.72092E-15  9.71659E+01 -6.79025E-05  1.0E-07
  1.200E+00  1.09658E-04  2.70894E-15  9.67381E+01 -7.43717E-05  1.0E-07
  1.300E+00  1.28695E-04  2.69600E-15  9.62760E+01 -8.09187E-05  1.0E-07
  1.400E+00  1.49255E-04  2.68212E-15  9.57804E+01 -8.75505E-05  1.0E-07
  1.500E+00  1.71338E-04  2.66733E-15  9.52520E+01 -9.42737E-05  1.0E-07
  1.600E+00  1.94942E-04  2.65164E-15  9.46916E+01 -1.01095E-04  1.0E-07
  1.700E+00  2.20070E-04  2.63507E-15  9.41002E+01 -1.08022E-04  1.0E-07
  1.800E+00  2.46720E-04  2.61766E-15  9.34785E+01 -1.15062E-04  1.0E-07
  1.900E+00  2.74892E-04  2.59943E-15  9.28274E+01 -1.22220E-04  1.0E-07
  2.000E+00  3.04586E-04  2.58041E-15  9.21480E+01 -1.29506E-04  1.0E-07
  2.100E+00  3.35803E-04  2.56061E-15  9.14412E+01 -1.36925E-04  1.0E-07
  2.200E+00  3.68542E-04  2.54008E-15  9.07080E+01 -1.44486E-04  1.0E-07
  2.300E+00  4.02802E-04  2.51884E-15  8.99494E+01 -1.52195E-04  1.0E-07
  2.400E+00  4.38585E-04  2.49692E-15  8.91665E+01 -1.60061E-04  1.0E-07
  2.500E+00  4.75889E-04  2.47434E-15  8.83603E+01 -1.68091E-04  1.0E-07
  2.600E+00  5.14715E-04  2.45115E-15  8.75320E+01 -1.76293E-04  1.0E-07
  2.700E+00  5.55063E-04  2.42736E-15  8.66826E+01 -1.84675E-04  1.0E-07
  2.800E+00  5.96931E-04  2.40302E-15  8.58133E+01 -1.93244E-04  1.0E-07
  2.900E+00  6.40321E-04  2.37814E-15  8.49251E+01 -2.02009E-04  1.0E-07
  3.000E+00  6.85233E-04  2.35278E-15  8.40192E+01 -2.10979E-04  1.0E-07
  3.100E+00  7.31665E-04  2.32694E-15  8.30966E+01 -2.20160E-04  1.0E-07
  3.200E+00  7.79618E-04  2.30068E-15  8.21586E+01 -2.29563E-04  1.0E-07
  3.300E+00  8.29092E-04  2.27401E-15  8.12062E+01 -2.39196E-04  1.0E-07
  3.400E+00  8.80086E-04  2.24696E-15  8.02405E+01 -2.49066E-04  1.0E-07
  3.500E+00  9.32601E-04  2.21958E-15  7.92627E+01 -2.59184E-04  1.0E-07
  3.600E+00  9.86636E-04  2.19189E-15  7.82738E+01 -2.69559E-04  1.0E-07
  3.700E+00  1.04219E-03  2.16392E-15  7.72748E+01 -2.80198E-04  1.0E-07
  3.800E+00  1.09927E-03  2.13569E-15  7.62669E+01 -2.91113E-04  1.0E-07
  3.900E+00  1.15786E-03  2.10725E-15  7.52512E+01 -3.02311E-04  1.0E-07
  4.000E+00  1.21797E-03  2.07861E-15  7.42285E+01 -3.13804E-04  1.0E-07
  4.100E+00  1.27961E-03  2.04981E-15  7.32000E+01 -3.25599E-04  1.0E-07
  4.200E+00  1.34276E-03  2.02087E-15  7.21666E+01 -3.37708E-04  1.0E-07
  4.300E+00  1.40743E-03  1.99182E-15  7.11293E+01 -3.50141E-04  1.0E-07
  4.400E+00  1.47362E-03  1.96269E-15  7.00890E+01 -3.62906E-04  1.0E-07
  4.500E+00  1.54133E-03  1.93350E-15  6.90466E+01 -3.76016E-04  1.0E-07
  4.600E+00  1.61056E-03  1.90428E-15  6.80031E+01 -3.89479E-04  1.0E-07
  4.700E+00  1.68131E-03  1.87505E-15  6.69592E+01 -4.03308E-04  1.0E-07
  4.800E+00  1.75357E-03  1.84583E-15  6.59159E+01 -4.17511E-04  1.0E-07
  4.900E+00  1.82735E-03  1.81665E-15  6.48739E+01 -4.32101E-04  1.0E-07
  5.000E+00  1.90265E-03  1.78753E-15  6.38340E+01 -4.47089E-04  1.0E-07
  5.100E+00  1.97947E-03  1.75849E-15  6.27969E+01 -4.62485E-04  1.0E-07
  5.200E+00  2.05780E-03  1.72955E-15  6.17633E+01 -4.78300E-04  1.0E-07
  5.300E+00  2.13765E-03  1.70073E-15  6.07341E+01 -4.94546E-04  1.0E-07
  5.400E+00  2.21902E-03  1.67204E-15  5.97096E+01 -5.11236E-04  1.0E-07
  5.500E+00  2.30190E-03  1.64351E-15  5.86908E+01 -5.28379E-04  1.0E-07
  5.600E+00  2.38630E-03  1.61515E-15  5.76780E+01 -5.45989E-04  1.0E-07
  5.700E+00  2.47222E-03  1.58697E-15  5.66719E+01 -5.64076E-04  1.0E-07
  5.800E+00  2.55965E-03  1.55900E-15  5.56730E+01 -5.82654E-04  1.0E-07
  5.900E+00  2.64859E-03  1.53125E-15  5.46818E+01 -6.01733E-04  1.0E-07
  6.000E+00  2.73905E-03  1.50372E-15  5.36989E+01 -6.21328E-04  1.0E-07
  6.100E+00  2.83103E-03  1.47644E-15  5.27245E+01 -6.41449E-04  1.0E-07
  6.200E+00  2.92452E-03  1.44941E-15  5.17592E+01 -6.62109E-04  1.0E-07
  6.300E+00  3.01952E-03  1.42264E-15  5.08034E+01 -6.83321E-04  1.0E-07
  6.400E+00  3.11604E-03  1.39615E-15  4.98573E+01 -7.05098E-04  1.0E-07
  6.500E+00  3.21407E-03  1.36994E-15  4.89214E+01 -7.27452E-04  1.0E-07
  6.600E+00  3.31362E-03  1.34402E-15  4.79960E+01 -7.50396E-04  1.0E-07
  6.700E+00  3.41468E-03  1.31841E-15  4.70813E+01 -7.73944E-04  1.0E-07
  6.800E+00  3.51725E-03  1.29310E-15  4.61776E+01 -7.98107E-04  1.0E-07
  6.900E+00  3.62133E-03  1.26811E-15  4.52851E+01 -8.22900E-04  1.0E-07
  7.000E+00  3.72692E-03  1.24344E-15  4.44041E+01 -8.48335E-04  1.0E-07
  7.100E+00  3.83403E-03  1.21910E-15  4.35347E+01 -8.74425E-04  1.0E-07
  7.200E+00  3.94265E-03  1.19508E-15  4.26771E+01 -9.01183E-04  1.0E-07
  7.300E+00  4.05278E-03  1.17140E-15  4.18315E+01 -9.28624E-04  1.0E-07
  7.400E+00  4.16442E-03  1.14806E-15  4.09980E+01 -9.56759E-04  1.0E-07
  7.500E+00  4.27757E-03  1.12506E-15  4.01766E+01 -9.85603E-04  1.0E-07
  7.600E+00  4.39223E-03  1.10240E-15  3.93675E+01 -1.01517E-03  1.0E-07
  7.700E+00  4.50840E-03  1.08009E-15  3.85708E+01 -1.04547E-03  1.0E-07
  7.800E+00  4.62608E-03  1.05813E-15  3.77865E+01 -1.07652E-03  1.0E-07
  7.900E+00  4.74527E-03  1.03652E-15  3.70146E+01 -1.10833E-03  1.0E-07
  8.000E+00  4.86597E-03  1.01525E-15  3.62552E+01 -1.14091E-03  1.0E-07
  8.100E+00  4.98817E-03  9.94334E-16  3.55083E+01 -1.17428E-03  1.0E-07
  8.200E+00  5.11188E-03  9.73767E-16  3.47739E+01 -1.20845E-03  1.0E-07
  8.300E+00  5.23711E-03  9.53549E-16  3.40519E+01 -1.24344E-03  1.0E-07
  8.400E+00  5.36383E-03  9.33679E-16  3.33423E+01 -1.27925E-03  1.0E-07
  8.500E+00  5.49207E-03  9.14156E-16  3.26451E+01 -1.31590E-03  1.0E-07
  8.600E+00  5.62181E-03  8.94979E-16  3.19603E+01 -1.35340E-03  1.0E-07
  8.700E+00  5.75306E-03  8.76144E-16  3.12877E+01 -1.39177E-03  1.0E-07
  8.800E+00  5.88581E-03  8.57652E-16  3.06273E+01 -1.43101E-03  1.0E-07
  8.900E+00  6.02007E-03  8.39499E-16  2.99790E+01 -1.47115E-03  1.0E-07
  9.000E+00  6.15583E-03  8.21682E-16  2.93428E+01 -1.51218E-03  1.0E-07
  9.100E+00  6.29310E-03  8.04199E-16  2.87185E+01 -1.55413E-03  1.0E-07
  9.200E+00  6.43187E-03  7.87048E-16  2.81060E+01 -1.59700E-03  1.0E-07
  9.300E+00  6.57214E-03  7.70224E-16  2.75052E+01 -1.64081E-03  1.0E-07
  9.400E+00  6.71392E-03  7.53725E-16  2.69160E+01 -1.68557E-03  1.0E-07
  9.500E+00  6.85720E-03  7.37548E-16  2.63383E+01 -1.73129E-03  1.0E-07
  9.600E+00  7.00198E-03  7.21688E-16  2.57719E+01 -1.77797E-03  1.0E-07
  9.700E+00  7.14827E-03  7.06141E-16  2.52168E+01 -1.82564E-03  1.0E-07
  9.800E+00  7.29605E-03  6.90905E-16  2.46727E+01 -1.87429E-03  1.0E-07
  9.900E+00  7.44534E-03  6.75975E-16  2.41395E+01 -1.92395E-03  1.0E-07
  1.000E+01  7.59612E-03  6.61347E-16  2.36171E+01 -1.97461E-03  1.0E-07
  1.025E+01  7.97965E-03  6.26072E-16  2.23574E+01 -2.10575E-03  1.0E-07
  1.050E+01  8.37255E-03  5.92593E-16  2.11619E+01 -2.24339E-03  1.0E-07
  1.075E+01  8.77480E-03  5.60841E-16  2.00280E+01 -2.38763E-03  1.0E-07
  1.100E+01  9.18641E-03  5.30749E-16  1.89534E+01 -2.53859E-03  1.0E-07
  1.125E+01  9.60736E-03  5.02246E-16  1.79355E+01 -2.69633E-03  1.0E-07
  1.150E+01  1.00376E-02  4.75262E-16  1.69719E+01 -2.86090E-03  1.0E-07
  1.175E+01  1.04773E-02  4.49730E-16  1.60601E+01 -3.03232E-03  1.0E-07
  1.200E+01  1.09262E-02  4.25581E-16  1.51978E+01 -3.21060E-03  1.0E-07
  1.225E+01  1.13844E-02  4.02749E-16  1.43824E+01 -3.39568E-03  1.0E-07
  1.250E+01  1.18520E-02  3.81170E-16  1.36118E+01 -3.58750E-03  1.0E-07
  1.275E+01  1.23288E-02  3.60781E-16  1.28837E+01 -3.78595E-03  1.0E-07
  1.300E+01  1.28150E-02  3.41521E-16  1.21960E+01 -3.99087E-03  1.0E-07
  1.325E+01  1.33104E-02  3.23333E-16  1.15464E+01 -4.20206E-03  1.0E-07
  1.350E+01  1.38150E-02  3.06159E-16  1.09332E+01 -4.41928E-03  1.0E-07
  1.375E+01  1.43290E-02  2.89947E-16  1.03542E+01 -4.64222E-03  1.0E-07
  1.400E+01  1.48521E-02  2.74644E-16  9.80772E+00 -4.87053E-03  1.0E-07
  1.425E+01  1.53845E-02  2.60202E-16  9.29197E+00 -5.10379E-03  1.0E-07
  1.450E+01  1.59262E-02  2.46572E-16  8.80526E+00 -5.34152E-03  1.0E-07
  1.475E+01  1.64770E-02  2.33712E-16  8.34601E+00 -5.58318E-03  1.0E-07
  1.500E+01  1.70371E-02  2.21578E-16  7.91269E+00 -5.82815E-03  1.0E-07
  1.525E+01  1.76063E-02  2.10130E-16  7.50387E+00 -6.07573E-03  1.0E-07
  1.550E+01  1.81848E-02  1.99329E-16  7.11818E+00 -6.32516E-03  1.0E-07
