 #
 # Subroutine ELSEPA. Elastic scattering of electrons and positrons
 #                    by neutral atoms and positive ions
 #
 # Projectile: electron
 # Kinetic energy = 2.20000E+04 eV = 8.08485E+02 a.u.
 #
 # Element: Hg,  Z =  80,  atomic weight = 2.00590E+02 g/mol
 #
 # Nuclear model: Fermi distribution
 #                Average radius = 6.26355E-13 cm
 #                Skin thickness = 5.46000E-14 cm
 #
 # Number of electrons = 80
 #
 # Electron density: Read from file z_080.den   
 #                   Number of data points =  763
 #                   Volume integral = 8.00000E+01
 #
 # Thomas-Fermi exchange potential
 #
 # Total elastic cross section = 5.31961E-17 cm**2 = 1.89967E+00 a0**2
 # 1st transport cross section = 1.46872E-18 cm**2 = 5.24489E-02 a0**2
 # 2nd transport cross section = 2.69191E-18 cm**2 = 9.61299E-02 a0**2
 #
 #
 # Differential cross section:                       MU=(1-COS(THETA))/2
 #
 #  THETA        MU          DCS          DCS        Sherman      error
 #  (deg)                 (cm**2/sr)   (a0**2/sr)    function
 #----------------------------------------------------------------------
  0.000E+00  0.00000E+00  8.47419E-15  3.02619E+02  0.00000E+00  1.0E-07
  1.000E-04  7.61557E-13  8.47419E-15  3.02619E+02  1.27381E-09  1.0E-07
  1.250E-04  1.18994E-12  8.47419E-15  3.02619E+02  1.59226E-09  1.0E-07
  1.500E-04  1.71346E-12  8.47419E-15  3.02619E+02  1.91072E-09  1.0E-07
  1.750E-04  2.33225E-12  8.47419E-15  3.02619E+02  2.22917E-09  1.0E-07
  2.000E-04  3.04617E-12  8.47419E-15  3.02619E+02  2.54762E-09  1.0E-07
  2.250E-04  3.85530E-12  8.47419E-15  3.02619E+02  2.86608E-09  1.0E-07
  2.500E-04  4.75964E-12  8.47419E-15  3.02619E+02  3.18453E-09  1.0E-07
  2.750E-04  5.75917E-12  8.47419E-15  3.02619E+02  3.50298E-09  1.0E-07
  3.000E-04  6.85391E-12  8.47419E-15  3.02619E+02  3.82143E-09  1.0E-07
  3.250E-04  8.04379E-12  8.47419E-15  3.02619E+02  4.13989E-09  1.0E-07
  3.500E-04  9.32893E-12  8.47419E-15  3.02619E+02  4.45834E-09  1.0E-07
  3.750E-04  1.07092E-11  8.47419E-15  3.02619E+02  4.77679E-09  1.0E-07
  4.000E-04  1.21847E-11  8.47419E-15  3.02619E+02  5.09525E-09  1.0E-07
  4.250E-04  1.37554E-11  8.47419E-15  3.02619E+02  5.41370E-09  1.0E-07
  4.500E-04  1.54213E-11  8.47419E-15  3.02619E+02  5.73215E-09  1.0E-07
  4.750E-04  1.71823E-11  8.47419E-15  3.02619E+02  6.05060E-09  1.0E-07
  5.000E-04  1.90386E-11  8.47419E-15  3.02619E+02  6.36906E-09  1.0E-07
  5.250E-04  2.09900E-11  8.47419E-15  3.02619E+02  6.68751E-09  1.0E-07
  5.500E-04  2.30367E-11  8.47419E-15  3.02619E+02  7.00596E-09  1.0E-07
  5.750E-04  2.51785E-11  8.47419E-15  3.02619E+02  7.32442E-09  1.0E-07
  6.000E-04  2.74156E-11  8.47419E-15  3.02619E+02  7.64287E-09  1.0E-07
  6.250E-04  2.97478E-11  8.47419E-15  3.02619E+02  7.96132E-09  1.0E-07
  6.500E-04  3.21752E-11  8.47419E-15  3.02619E+02  8.27977E-09  1.0E-07
  6.750E-04  3.46979E-11  8.47419E-15  3.02619E+02  8.59823E-09  1.0E-07
  7.000E-04  3.73157E-11  8.47419E-15  3.02619E+02  8.91668E-09  1.0E-07
  7.250E-04  4.00286E-11  8.47419E-15  3.02619E+02  9.23513E-09  1.0E-07
  7.500E-04  4.28368E-11  8.47419E-15  3.02619E+02  9.55359E-09  1.0E-07
  7.750E-04  4.57402E-11  8.47419E-15  3.02619E+02  9.87204E-09  1.0E-07
  8.000E-04  4.87388E-11  8.47419E-15  3.02619E+02  1.01905E-08  1.0E-07
  8.250E-04  5.18325E-11  8.47419E-15  3.02619E+02  1.05089E-08  1.0E-07
  8.500E-04  5.50215E-11  8.47419E-15  3.02619E+02  1.08274E-08  1.0E-07
  8.750E-04  5.83057E-11  8.47419E-15  3.02619E+02  1.11459E-08  1.0E-07
  9.000E-04  6.16850E-11  8.47419E-15  3.02619E+02  1.14643E-08  1.0E-07
  9.250E-04  6.51595E-11  8.47419E-15  3.02619E+02  1.17828E-08  1.0E-07
  9.500E-04  6.87293E-11  8.47419E-15  3.02619E+02  1.21012E-08  1.0E-07
  9.750E-04  7.23943E-11  8.47419E-15  3.02619E+02  1.24197E-08  1.0E-07
  1.000E-03  7.61544E-11  8.47419E-15  3.02619E+02  1.27381E-08  1.0E-07
  1.250E-03  1.18991E-10  8.47418E-15  3.02619E+02  1.59226E-08  1.0E-07
  1.500E-03  1.71347E-10  8.47418E-15  3.02619E+02  1.91072E-08  1.0E-07
  1.750E-03  2.33223E-10  8.47418E-15  3.02618E+02  2.22917E-08  1.0E-07
  2.000E-03  3.04617E-10  8.47418E-15  3.02618E+02  2.54763E-08  1.0E-07
  2.250E-03  3.85531E-10  8.47417E-15  3.02618E+02  2.86608E-08  1.0E-07
  2.500E-03  4.75965E-10  8.47417E-15  3.02618E+02  3.18453E-08  1.0E-07
  2.750E-03  5.75917E-10  8.47416E-15  3.02618E+02  3.50299E-08  1.0E-07
  3.000E-03  6.85389E-10  8.47416E-15  3.02618E+02  3.82144E-08  1.0E-07
  3.250E-03  8.04380E-10  8.47415E-15  3.02617E+02  4.13990E-08  1.0E-07
  3.500E-03  9.32891E-10  8.47415E-15  3.02617E+02  4.45835E-08  1.0E-07
  3.750E-03  1.07092E-09  8.47414E-15  3.02617E+02  4.77681E-08  1.0E-07
  4.000E-03  1.21847E-09  8.47413E-15  3.02617E+02  5.09526E-08  1.0E-07
  4.250E-03  1.37554E-09  8.47413E-15  3.02617E+02  5.41372E-08  1.0E-07
  4.500E-03  1.54213E-09  8.47412E-15  3.02616E+02  5.73218E-08  1.0E-07
  4.750E-03  1.71823E-09  8.47411E-15  3.02616E+02  6.05063E-08  1.0E-07
  5.000E-03  1.90386E-09  8.47410E-15  3.02616E+02  6.36909E-08  1.0E-07
  5.250E-03  2.09900E-09  8.47409E-15  3.02615E+02  6.68755E-08  1.0E-07
  5.500E-03  2.30367E-09  8.47408E-15  3.02615E+02  7.00601E-08  1.0E-07
  5.750E-03  2.51785E-09  8.47407E-15  3.02615E+02  7.32447E-08  1.0E-07
  6.000E-03  2.74156E-09  8.47406E-15  3.02614E+02  7.64293E-08  1.0E-07
  6.250E-03  2.97478E-09  8.47405E-15  3.02614E+02  7.96139E-08  1.0E-07
  6.500E-03  3.21752E-09  8.47404E-15  3.02613E+02  8.27985E-08  1.0E-07
  6.750E-03  3.46978E-09  8.47403E-15  3.02613E+02  8.59831E-08  1.0E-07
  7.000E-03  3.73156E-09  8.47401E-15  3.02613E+02  8.91678E-08  1.0E-07
  7.250E-03  4.00286E-09  8.47400E-15  3.02612E+02  9.23524E-08  1.0E-07
  7.500E-03  4.28368E-09  8.47399E-15  3.02612E+02  9.55371E-08  1.0E-07
  7.750E-03  4.57402E-09  8.47398E-15  3.02611E+02  9.87217E-08  1.0E-07
  8.000E-03  4.87388E-09  8.47396E-15  3.02611E+02  1.01906E-07  1.0E-07
  8.250E-03  5.18326E-09  8.47395E-15  3.02610E+02  1.05091E-07  1.0E-07
  8.500E-03  5.50215E-09  8.47393E-15  3.02610E+02  1.08276E-07  1.0E-07
  8.750E-03  5.83057E-09  8.47392E-15  3.02609E+02  1.11460E-07  1.0E-07
  9.000E-03  6.16850E-09  8.47390E-15  3.02608E+02  1.14645E-07  1.0E-07
  9.250E-03  6.51596E-09  8.47388E-15  3.02608E+02  1.17830E-07  1.0E-07
  9.500E-03  6.87293E-09  8.47387E-15  3.02607E+02  1.21015E-07  1.0E-07
  9.750E-03  7.23942E-09  8.47385E-15  3.02607E+02  1.24199E-07  1.0E-07
  1.000E-02  7.61544E-09  8.47383E-15  3.02606E+02  1.27384E-07  1.0E-07
  1.250E-02  1.18991E-08  8.47363E-15  3.02599E+02  1.59232E-07  1.0E-07
  1.500E-02  1.71347E-08  8.47339E-15  3.02590E+02  1.91081E-07  1.0E-07
  1.750E-02  2.33223E-08  8.47310E-15  3.02580E+02  2.22932E-07  1.0E-07
  2.000E-02  3.04617E-08  8.47276E-15  3.02568E+02  2.54785E-07  1.0E-07
  2.250E-02  3.85531E-08  8.47238E-15  3.02554E+02  2.86640E-07  1.0E-07
  2.500E-02  4.75965E-08  8.47196E-15  3.02539E+02  3.18497E-07  1.0E-07
  2.750E-02  5.75917E-08  8.47149E-15  3.02522E+02  3.50357E-07  1.0E-07
  3.000E-02  6.85389E-08  8.47097E-15  3.02504E+02  3.82220E-07  1.0E-07
  3.250E-02  8.04380E-08  8.47042E-15  3.02484E+02  4.14086E-07  1.0E-07
  3.500E-02  9.32891E-08  8.46981E-15  3.02463E+02  4.45956E-07  1.0E-07
  3.750E-02  1.07092E-07  8.46917E-15  3.02439E+02  4.77829E-07  1.0E-07
  4.000E-02  1.21847E-07  8.46847E-15  3.02415E+02  5.09706E-07  1.0E-07
  4.250E-02  1.37554E-07  8.46774E-15  3.02388E+02  5.41588E-07  1.0E-07
  4.500E-02  1.54213E-07  8.46696E-15  3.02360E+02  5.73474E-07  1.0E-07
  4.750E-02  1.71823E-07  8.46613E-15  3.02331E+02  6.05365E-07  1.0E-07
  5.000E-02  1.90386E-07  8.46526E-15  3.02300E+02  6.37261E-07  1.0E-07
  5.250E-02  2.09900E-07  8.46435E-15  3.02267E+02  6.69162E-07  1.0E-07
  5.500E-02  2.30367E-07  8.46339E-15  3.02233E+02  7.01069E-07  1.0E-07
  5.750E-02  2.51785E-07  8.46238E-15  3.02197E+02  7.32981E-07  1.0E-07
  6.000E-02  2.74156E-07  8.46134E-15  3.02160E+02  7.64900E-07  1.0E-07
  6.250E-02  2.97478E-07  8.46024E-15  3.02121E+02  7.96825E-07  1.0E-07
  6.500E-02  3.21752E-07  8.45911E-15  3.02080E+02  8.28757E-07  1.0E-07
  6.750E-02  3.46978E-07  8.45793E-15  3.02038E+02  8.60696E-07  1.0E-07
  7.000E-02  3.73156E-07  8.45670E-15  3.01994E+02  8.92641E-07  1.0E-07
  7.250E-02  4.00286E-07  8.45543E-15  3.01949E+02  9.24595E-07  1.0E-07
  7.500E-02  4.28368E-07  8.45412E-15  3.01902E+02  9.56556E-07  1.0E-07
  7.750E-02  4.57402E-07  8.45276E-15  3.01854E+02  9.88525E-07  1.0E-07
  8.000E-02  4.87388E-07  8.45136E-15  3.01804E+02  1.02050E-06  1.0E-07
  8.250E-02  5.18325E-07  8.44992E-15  3.01752E+02  1.05249E-06  1.0E-07
  8.500E-02  5.50215E-07  8.44843E-15  3.01699E+02  1.08448E-06  1.0E-07
  8.750E-02  5.83057E-07  8.44689E-15  3.01644E+02  1.11649E-06  1.0E-07
  9.000E-02  6.16850E-07  8.44532E-15  3.01588E+02  1.14850E-06  1.0E-07
  9.250E-02  6.51596E-07  8.44369E-15  3.01530E+02  1.18052E-06  1.0E-07
  9.500E-02  6.87293E-07  8.44203E-15  3.01470E+02  1.21255E-06  1.0E-07
  9.750E-02  7.23942E-07  8.44032E-15  3.01409E+02  1.24460E-06  1.0E-07
  1.000E-01  7.61543E-07  8.43857E-15  3.01347E+02  1.27665E-06  1.0E-07
  1.250E-01  1.18991E-06  8.41864E-15  3.00635E+02  1.59781E-06  1.0E-07
  1.500E-01  1.71347E-06  8.39439E-15  2.99769E+02  1.92029E-06  1.0E-07
  1.750E-01  2.33223E-06  8.36588E-15  2.98751E+02  2.24437E-06  1.0E-07
  2.000E-01  3.04617E-06  8.33318E-15  2.97583E+02  2.57030E-06  1.0E-07
  2.250E-01  3.85531E-06  8.29639E-15  2.96269E+02  2.89836E-06  1.0E-07
  2.500E-01  4.75964E-06  8.25558E-15  2.94812E+02  3.22879E-06  1.0E-07
  2.750E-01  5.75916E-06  8.21087E-15  2.93215E+02  3.56187E-06  1.0E-07
  3.000E-01  6.85388E-06  8.16236E-15  2.91483E+02  3.89785E-06  1.0E-07
  3.250E-01  8.04378E-06  8.11018E-15  2.89620E+02  4.23700E-06  1.0E-07
  3.500E-01  9.32888E-06  8.05444E-15  2.87629E+02  4.57956E-06  1.0E-07
  3.750E-01  1.07092E-05  7.99529E-15  2.85517E+02  4.92580E-06  1.0E-07
  4.000E-01  1.21846E-05  7.93286E-15  2.83287E+02  5.27597E-06  1.0E-07
  4.250E-01  1.37553E-05  7.86729E-15  2.80946E+02  5.63032E-06  1.0E-07
  4.500E-01  1.54212E-05  7.79873E-15  2.78498E+02  5.98911E-06  1.0E-07
  4.750E-01  1.71822E-05  7.72734E-15  2.75948E+02  6.35258E-06  1.0E-07
  5.000E-01  1.90385E-05  7.65326E-15  2.73303E+02  6.72099E-06  1.0E-07
  5.250E-01  2.09899E-05  7.57666E-15  2.70568E+02  7.09457E-06  1.0E-07
  5.500E-01  2.30365E-05  7.49770E-15  2.67748E+02  7.47357E-06  1.0E-07
  5.750E-01  2.51783E-05  7.41653E-15  2.64849E+02  7.85824E-06  1.0E-07
  6.000E-01  2.74153E-05  7.33331E-15  2.61877E+02  8.24880E-06  1.0E-07
  6.250E-01  2.97475E-05  7.24821E-15  2.58838E+02  8.64551E-06  1.0E-07
  6.500E-01  3.21749E-05  7.16137E-15  2.55737E+02  9.04859E-06  1.0E-07
  6.750E-01  3.46974E-05  7.07297E-15  2.52580E+02  9.45827E-06  1.0E-07
  7.000E-01  3.73152E-05  6.98315E-15  2.49373E+02  9.87478E-06  1.0E-07
  7.250E-01  4.00281E-05  6.89207E-15  2.46120E+02  1.02984E-05  1.0E-07
  7.500E-01  4.28362E-05  6.79988E-15  2.42828E+02  1.07292E-05  1.0E-07
  7.750E-01  4.57395E-05  6.70672E-15  2.39501E+02  1.11676E-05  1.0E-07
  8.000E-01  4.87380E-05  6.61273E-15  2.36145E+02  1.16137E-05  1.0E-07
  8.250E-01  5.18317E-05  6.51806E-15  2.32764E+02  1.20677E-05  1.0E-07
  8.500E-01  5.50205E-05  6.42284E-15  2.29364E+02  1.25299E-05  1.0E-07
  8.750E-01  5.83045E-05  6.32719E-15  2.25948E+02  1.30004E-05  1.0E-07
  9.000E-01  6.16838E-05  6.23125E-15  2.22522E+02  1.34795E-05  1.0E-07
  9.250E-01  6.51582E-05  6.13513E-15  2.19089E+02  1.39674E-05  1.0E-07
  9.500E-01  6.87277E-05  6.03894E-15  2.15655E+02  1.44642E-05  1.0E-07
  9.750E-01  7.23925E-05  5.94280E-15  2.12221E+02  1.49703E-05  1.0E-07
  1.000E+00  7.61524E-05  5.84681E-15  2.08794E+02  1.54857E-05  1.0E-07
  1.100E+00  9.21439E-05  5.46624E-15  1.95203E+02  1.76447E-05  1.0E-07
  1.200E+00  1.09658E-04  5.09500E-15  1.81946E+02  1.99684E-05  1.0E-07
  1.300E+00  1.28695E-04  4.73723E-15  1.69170E+02  2.24680E-05  1.0E-07
  1.400E+00  1.49255E-04  4.39591E-15  1.56981E+02  2.51538E-05  1.0E-07
  1.500E+00  1.71338E-04  4.07294E-15  1.45447E+02  2.80355E-05  1.0E-07
  1.600E+00  1.94942E-04  3.76941E-15  1.34608E+02  3.11222E-05  1.0E-07
  1.700E+00  2.20070E-04  3.48570E-15  1.24477E+02  3.44224E-05  1.0E-07
  1.800E+00  2.46720E-04  3.22170E-15  1.15049E+02  3.79440E-05  1.0E-07
  1.900E+00  2.74892E-04  2.97688E-15  1.06306E+02  4.16946E-05  1.0E-07
  2.000E+00  3.04586E-04  2.75049E-15  9.82218E+01  4.56810E-05  1.0E-07
  2.100E+00  3.35803E-04  2.54157E-15  9.07612E+01  4.99099E-05  1.0E-07
  2.200E+00  3.68542E-04  2.34909E-15  8.38876E+01  5.43872E-05  1.0E-07
  2.300E+00  4.02802E-04  2.17196E-15  7.75621E+01  5.91185E-05  1.0E-07
  2.400E+00  4.38585E-04  2.00909E-15  7.17458E+01  6.41088E-05  1.0E-07
  2.500E+00  4.75889E-04  1.85940E-15  6.64004E+01  6.93626E-05  1.0E-07
  2.600E+00  5.14715E-04  1.72188E-15  6.14894E+01  7.48837E-05  1.0E-07
  2.700E+00  5.55063E-04  1.59555E-15  5.69780E+01  8.06754E-05  1.0E-07
  2.800E+00  5.96931E-04  1.47949E-15  5.28334E+01  8.67401E-05  1.0E-07
  2.900E+00  6.40321E-04  1.37285E-15  4.90253E+01  9.30794E-05  1.0E-07
  3.000E+00  6.85233E-04  1.27484E-15  4.55254E+01  9.96942E-05  1.0E-07
  3.100E+00  7.31665E-04  1.18474E-15  4.23077E+01  1.06584E-04  1.0E-07
  3.200E+00  7.79618E-04  1.10187E-15  3.93484E+01  1.13748E-04  1.0E-07
  3.300E+00  8.29092E-04  1.02562E-15  3.66255E+01  1.21185E-04  1.0E-07
  3.400E+00  8.80086E-04  9.55426E-16  3.41189E+01  1.28889E-04  1.0E-07
  3.500E+00  9.32601E-04  8.90779E-16  3.18103E+01  1.36858E-04  1.0E-07
  3.600E+00  9.86636E-04  8.31207E-16  2.96829E+01  1.45085E-04  1.0E-07
  3.700E+00  1.04219E-03  7.76280E-16  2.77215E+01  1.53563E-04  1.0E-07
  3.800E+00  1.09927E-03  7.25609E-16  2.59120E+01  1.62284E-04  1.0E-07
  3.900E+00  1.15786E-03  6.78835E-16  2.42416E+01  1.71239E-04  1.0E-07
  4.000E+00  1.21797E-03  6.35632E-16  2.26988E+01  1.80416E-04  1.0E-07
  4.100E+00  1.27961E-03  5.95704E-16  2.12730E+01  1.89803E-04  1.0E-07
  4.200E+00  1.34276E-03  5.58779E-16  1.99543E+01  1.99388E-04  1.0E-07
  4.300E+00  1.40743E-03  5.24608E-16  1.87341E+01  2.09155E-04  1.0E-07
  4.400E+00  1.47362E-03  4.92966E-16  1.76041E+01  2.19088E-04  1.0E-07
  4.500E+00  1.54133E-03  4.63645E-16  1.65571E+01  2.29171E-04  1.0E-07
  4.600E+00  1.61056E-03  4.36456E-16  1.55861E+01  2.39387E-04  1.0E-07
  4.700E+00  1.68131E-03  4.11227E-16  1.46852E+01  2.49715E-04  1.0E-07
  4.800E+00  1.75357E-03  3.87800E-16  1.38486E+01  2.60138E-04  1.0E-07
  4.900E+00  1.82735E-03  3.66030E-16  1.30712E+01  2.70633E-04  1.0E-07
  5.000E+00  1.90265E-03  3.45784E-16  1.23482E+01  2.81182E-04  1.0E-07
  5.100E+00  1.97947E-03  3.26942E-16  1.16753E+01  2.91761E-04  1.0E-07
  5.200E+00  2.05780E-03  3.09392E-16  1.10486E+01  3.02349E-04  1.0E-07
  5.300E+00  2.13765E-03  2.93034E-16  1.04644E+01  3.12924E-04  1.0E-07
  5.400E+00  2.21902E-03  2.77774E-16  9.91950E+00  3.23463E-04  1.0E-07
  5.500E+00  2.30190E-03  2.63528E-16  9.41074E+00  3.33944E-04  1.0E-07
  5.600E+00  2.38630E-03  2.50216E-16  8.93536E+00  3.44345E-04  1.0E-07
  5.700E+00  2.47222E-03  2.37767E-16  8.49080E+00  3.54642E-04  1.0E-07
  5.800E+00  2.55965E-03  2.26115E-16  8.07473E+00  3.64814E-04  1.0E-07
  5.900E+00  2.64859E-03  2.15201E-16  7.68498E+00  3.74838E-04  1.0E-07
  6.000E+00  2.73905E-03  2.04969E-16  7.31959E+00  3.84693E-04  1.0E-07
  6.100E+00  2.83103E-03  1.95369E-16  6.97674E+00  3.94357E-04  1.0E-07
  6.200E+00  2.92452E-03  1.86352E-16  6.65476E+00  4.03808E-04  1.0E-07
  6.300E+00  3.01952E-03  1.77878E-16  6.35213E+00  4.13027E-04  1.0E-07
  6.400E+00  3.11604E-03  1.69906E-16  6.06744E+00  4.21992E-04  1.0E-07
  6.500E+00  3.21407E-03  1.62400E-16  5.79939E+00  4.30683E-04  1.0E-07
  6.600E+00  3.31362E-03  1.55327E-16  5.54681E+00  4.39082E-04  1.0E-07
  6.700E+00  3.41468E-03  1.48656E-16  5.30860E+00  4.47168E-04  1.0E-07
  6.800E+00  3.51725E-03  1.42360E-16  5.08376E+00  4.54923E-04  1.0E-07
  6.900E+00  3.62133E-03  1.36412E-16  4.87136E+00  4.62328E-04  1.0E-07
  7.000E+00  3.72692E-03  1.30788E-16  4.67054E+00  4.69367E-04  1.0E-07
  7.100E+00  3.83403E-03  1.25468E-16  4.48053E+00  4.76019E-04  1.0E-07
  7.200E+00  3.94265E-03  1.20429E-16  4.30060E+00  4.82269E-04  1.0E-07
  7.300E+00  4.05278E-03  1.15654E-16  4.13008E+00  4.88099E-04  1.0E-07
  7.400E+00  4.16442E-03  1.11125E-16  3.96836E+00  4.93491E-04  1.0E-07
  7.500E+00  4.27757E-03  1.06827E-16  3.81487E+00  4.98430E-04  1.0E-07
  7.600E+00  4.39223E-03  1.02745E-16  3.66909E+00  5.02898E-04  1.0E-07
  7.700E+00  4.50840E-03  9.88647E-17  3.53052E+00  5.06879E-04  1.0E-07
  7.800E+00  4.62608E-03  9.51740E-17  3.39873E+00  5.10356E-04  1.0E-07
  7.900E+00  4.74527E-03  9.16614E-17  3.27329E+00  5.13312E-04  1.0E-07
  8.000E+00  4.86597E-03  8.83159E-17  3.15382E+00  5.15732E-04  1.0E-07
  8.100E+00  4.98817E-03  8.51277E-17  3.03997E+00  5.17599E-04  1.0E-07
  8.200E+00  5.11188E-03  8.20875E-17  2.93140E+00  5.18897E-04  1.0E-07
  8.300E+00  5.23711E-03  7.91866E-17  2.82781E+00  5.19608E-04  1.0E-07
  8.400E+00  5.36383E-03  7.64172E-17  2.72891E+00  5.19717E-04  1.0E-07
  8.500E+00  5.49207E-03  7.37717E-17  2.63444E+00  5.19207E-04  1.0E-07
  8.600E+00  5.62181E-03  7.12433E-17  2.54414E+00  5.18061E-04  1.0E-07
  8.700E+00  5.75306E-03  6.88256E-17  2.45781E+00  5.16263E-04  1.0E-07
  8.800E+00  5.88581E-03  6.65125E-17  2.37520E+00  5.13795E-04  1.0E-07
  8.900E+00  6.02007E-03  6.42984E-17  2.29614E+00  5.10642E-04  1.0E-07
  9.000E+00  6.15583E-03  6.21782E-17  2.22043E+00  5.06786E-04  1.0E-07
  9.100E+00  6.29310E-03  6.01470E-17  2.14789E+00  5.02210E-04  1.0E-07
  9.200E+00  6.43187E-03  5.82002E-17  2.07837E+00  4.96898E-04  1.0E-07
  9.300E+00  6.57214E-03  5.63335E-17  2.01171E+00  4.90833E-04  1.0E-07
  9.400E+00  6.71392E-03  5.45430E-17  1.94777E+00  4.83999E-04  1.0E-07
  9.500E+00  6.85720E-03  5.28248E-17  1.88641E+00  4.76378E-04  1.0E-07
  9.600E+00  7.00198E-03  5.11755E-17  1.82751E+00  4.67954E-04  1.0E-07
  9.700E+00  7.14827E-03  4.95917E-17  1.77095E+00  4.58712E-04  1.0E-07
  9.800E+00  7.29605E-03  4.80703E-17  1.71662E+00  4.48634E-04  1.0E-07
  9.900E+00  7.44534E-03  4.66084E-17  1.66442E+00  4.37705E-04  1.0E-07
  1.000E+01  7.59612E-03  4.52033E-17  1.61424E+00  4.25910E-04  1.0E-07
  1.025E+01  7.97965E-03  4.19217E-17  1.49705E+00  3.92531E-04  1.0E-07
  1.050E+01  8.37255E-03  3.89416E-17  1.39063E+00  3.53417E-04  1.0E-07
  1.075E+01  8.77480E-03  3.62310E-17  1.29383E+00  3.08357E-04  1.0E-07
  1.100E+01  9.18641E-03  3.37615E-17  1.20565E+00  2.57169E-04  1.0E-07
  1.125E+01  9.60736E-03  3.15085E-17  1.12519E+00  1.99695E-04  1.0E-07
  1.150E+01  1.00376E-02  2.94501E-17  1.05168E+00  1.35808E-04  1.0E-07
  1.175E+01  1.04773E-02  2.75670E-17  9.84436E-01  6.54176E-05  1.0E-07
  1.200E+01  1.09262E-02  2.58420E-17  9.22833E-01 -1.15310E-05  1.0E-07
  1.225E+01  1.13844E-02  2.42596E-17  8.66327E-01 -9.50533E-05  1.0E-07
  1.250E+01  1.18520E-02  2.28063E-17  8.14429E-01 -1.85125E-04  1.0E-07
  1.275E+01  1.23288E-02  2.14698E-17  7.66701E-01 -2.81680E-04  1.0E-07
  1.300E+01  1.28150E-02  2.02390E-17  7.22749E-01 -3.84613E-04  1.0E-07
  1.325E+01  1.33104E-02  1.91042E-17  6.82222E-01 -4.93780E-04  1.0E-07
  1.350E+01  1.38150E-02  1.80563E-17  6.44801E-01 -6.08999E-04  1.0E-07
  1.375E+01  1.43290E-02  1.70874E-17  6.10201E-01 -7.30054E-04  1.0E-07
  1.400E+01  1.48521E-02  1.61902E-17  5.78163E-01 -8.56696E-04  1.0E-07
  1.425E+01  1.53845E-02  1.53583E-17  5.48456E-01 -9.88646E-04  1.0E-07
  1.450E+01  1.59262E-02  1.45858E-17  5.20870E-01 -1.12560E-03  1.0E-07
  1.475E+01  1.64770E-02  1.38674E-17  4.95215E-01 -1.26724E-03  1.0E-07
  1.500E+01  1.70371E-02  1.31984E-17  4.71323E-01 -1.41321E-03  1.0E-07
  1.525E+01  1.76063E-02  1.25743E-17  4.49037E-01 -1.56316E-03  1.0E-07
  1.550E+01  1.81848E-02  1.19914E-17  4.28219E-01 -1.71671E-03  1.0E-07
