 #
 # Subroutine ELSEPA. Elastic scattering of electrons and positrons
 #                    by neutral atoms and positive ions
 #
 # Projectile: electron
 # Kinetic energy = 3.00000E+02 eV = 1.10248E+01 a.u.
 #
 # Element: Hg,  Z =  80,  atomic weight = 2.00590E+02 g/mol
 #
 # Nuclear model: Fermi distribution
 #                Average radius = 6.26355E-13 cm
 #                Skin thickness = 5.46000E-14 cm
 #
 # Number of electrons = 80
 #
 # Electron density: Read from file z_080.den   
 #                   Number of data points =  763
 #                   Volume integral = 8.00000E+01
 #
 # Thomas-Fermi exchange potential
 #
 # Total elastic cross section = 5.30846E-16 cm**2 = 1.89569E+01 a0**2
 # 1st transport cross section = 1.00080E-16 cm**2 = 3.57392E+00 a0**2
 # 2nd transport cross section = 1.60888E-16 cm**2 = 5.74541E+00 a0**2
 #
 #
 # Differential cross section:                       MU=(1-COS(THETA))/2
 #
 #  THETA        MU          DCS          DCS        Sherman      error
 #  (deg)                 (cm**2/sr)   (a0**2/sr)    function
 #----------------------------------------------------------------------
  0.000E+00  0.00000E+00  2.52069E-15  9.00156E+01  0.00000E+00  1.0E-07
  1.000E-04  7.61557E-13  2.52069E-15  9.00156E+01  4.16338E-08  1.0E-07
  1.250E-04  1.18994E-12  2.52069E-15  9.00156E+01  5.20423E-08  1.0E-07
  1.500E-04  1.71346E-12  2.52069E-15  9.00156E+01  6.24508E-08  1.0E-07
  1.750E-04  2.33225E-12  2.52069E-15  9.00156E+01  7.28592E-08  1.0E-07
  2.000E-04  3.04617E-12  2.52069E-15  9.00156E+01  8.32677E-08  1.0E-07
  2.250E-04  3.85530E-12  2.52069E-15  9.00156E+01  9.36761E-08  1.0E-07
  2.500E-04  4.75964E-12  2.52069E-15  9.00156E+01  1.04085E-07  1.0E-07
  2.750E-04  5.75917E-12  2.52069E-15  9.00156E+01  1.14493E-07  1.0E-07
  3.000E-04  6.85391E-12  2.52069E-15  9.00156E+01  1.24902E-07  1.0E-07
  3.250E-04  8.04379E-12  2.52069E-15  9.00156E+01  1.35310E-07  1.0E-07
  3.500E-04  9.32893E-12  2.52069E-15  9.00156E+01  1.45718E-07  1.0E-07
  3.750E-04  1.07092E-11  2.52069E-15  9.00156E+01  1.56127E-07  1.0E-07
  4.000E-04  1.21847E-11  2.52069E-15  9.00156E+01  1.66535E-07  1.0E-07
  4.250E-04  1.37554E-11  2.52069E-15  9.00156E+01  1.76944E-07  1.0E-07
  4.500E-04  1.54213E-11  2.52069E-15  9.00156E+01  1.87352E-07  1.0E-07
  4.750E-04  1.71823E-11  2.52069E-15  9.00156E+01  1.97761E-07  1.0E-07
  5.000E-04  1.90386E-11  2.52069E-15  9.00156E+01  2.08169E-07  1.0E-07
  5.250E-04  2.09900E-11  2.52069E-15  9.00156E+01  2.18578E-07  1.0E-07
  5.500E-04  2.30367E-11  2.52069E-15  9.00156E+01  2.28986E-07  1.0E-07
  5.750E-04  2.51785E-11  2.52069E-15  9.00156E+01  2.39395E-07  1.0E-07
  6.000E-04  2.74156E-11  2.52069E-15  9.00156E+01  2.49803E-07  1.0E-07
  6.250E-04  2.97478E-11  2.52069E-15  9.00156E+01  2.60211E-07  1.0E-07
  6.500E-04  3.21752E-11  2.52069E-15  9.00156E+01  2.70620E-07  1.0E-07
  6.750E-04  3.46979E-11  2.52069E-15  9.00156E+01  2.81028E-07  1.0E-07
  7.000E-04  3.73157E-11  2.52069E-15  9.00156E+01  2.91437E-07  1.0E-07
  7.250E-04  4.00286E-11  2.52069E-15  9.00156E+01  3.01845E-07  1.0E-07
  7.500E-04  4.28368E-11  2.52069E-15  9.00156E+01  3.12254E-07  1.0E-07
  7.750E-04  4.57402E-11  2.52069E-15  9.00156E+01  3.22662E-07  1.0E-07
  8.000E-04  4.87388E-11  2.52069E-15  9.00156E+01  3.33071E-07  1.0E-07
  8.250E-04  5.18325E-11  2.52069E-15  9.00156E+01  3.43479E-07  1.0E-07
  8.500E-04  5.50215E-11  2.52069E-15  9.00156E+01  3.53888E-07  1.0E-07
  8.750E-04  5.83057E-11  2.52069E-15  9.00156E+01  3.64296E-07  1.0E-07
  9.000E-04  6.16850E-11  2.52069E-15  9.00156E+01  3.74705E-07  1.0E-07
  9.250E-04  6.51595E-11  2.52069E-15  9.00156E+01  3.85113E-07  1.0E-07
  9.500E-04  6.87293E-11  2.52069E-15  9.00156E+01  3.95521E-07  1.0E-07
  9.750E-04  7.23943E-11  2.52069E-15  9.00156E+01  4.05930E-07  1.0E-07
  1.000E-03  7.61544E-11  2.52069E-15  9.00156E+01  4.16338E-07  1.0E-07
  1.250E-03  1.18991E-10  2.52069E-15  9.00156E+01  5.20423E-07  1.0E-07
  1.500E-03  1.71347E-10  2.52069E-15  9.00156E+01  6.24508E-07  1.0E-07
  1.750E-03  2.33223E-10  2.52069E-15  9.00156E+01  7.28592E-07  1.0E-07
  2.000E-03  3.04617E-10  2.52069E-15  9.00156E+01  8.32677E-07  1.0E-07
  2.250E-03  3.85531E-10  2.52069E-15  9.00156E+01  9.36761E-07  1.0E-07
  2.500E-03  4.75965E-10  2.52069E-15  9.00156E+01  1.04085E-06  1.0E-07
  2.750E-03  5.75917E-10  2.52069E-15  9.00156E+01  1.14493E-06  1.0E-07
  3.000E-03  6.85389E-10  2.52069E-15  9.00156E+01  1.24902E-06  1.0E-07
  3.250E-03  8.04380E-10  2.52069E-15  9.00155E+01  1.35310E-06  1.0E-07
  3.500E-03  9.32891E-10  2.52069E-15  9.00155E+01  1.45718E-06  1.0E-07
  3.750E-03  1.07092E-09  2.52069E-15  9.00155E+01  1.56127E-06  1.0E-07
  4.000E-03  1.21847E-09  2.52069E-15  9.00155E+01  1.66535E-06  1.0E-07
  4.250E-03  1.37554E-09  2.52069E-15  9.00155E+01  1.76944E-06  1.0E-07
  4.500E-03  1.54213E-09  2.52069E-15  9.00155E+01  1.87352E-06  1.0E-07
  4.750E-03  1.71823E-09  2.52069E-15  9.00155E+01  1.97761E-06  1.0E-07
  5.000E-03  1.90386E-09  2.52069E-15  9.00155E+01  2.08169E-06  1.0E-07
  5.250E-03  2.09900E-09  2.52069E-15  9.00155E+01  2.18578E-06  1.0E-07
  5.500E-03  2.30367E-09  2.52069E-15  9.00155E+01  2.28986E-06  1.0E-07
  5.750E-03  2.51785E-09  2.52069E-15  9.00155E+01  2.39395E-06  1.0E-07
  6.000E-03  2.74156E-09  2.52069E-15  9.00155E+01  2.49803E-06  1.0E-07
  6.250E-03  2.97478E-09  2.52069E-15  9.00155E+01  2.60212E-06  1.0E-07
  6.500E-03  3.21752E-09  2.52069E-15  9.00155E+01  2.70620E-06  1.0E-07
  6.750E-03  3.46978E-09  2.52069E-15  9.00155E+01  2.81028E-06  1.0E-07
  7.000E-03  3.73156E-09  2.52069E-15  9.00155E+01  2.91437E-06  1.0E-07
  7.250E-03  4.00286E-09  2.52069E-15  9.00155E+01  3.01845E-06  1.0E-07
  7.500E-03  4.28368E-09  2.52069E-15  9.00155E+01  3.12254E-06  1.0E-07
  7.750E-03  4.57402E-09  2.52069E-15  9.00155E+01  3.22662E-06  1.0E-07
  8.000E-03  4.87388E-09  2.52069E-15  9.00155E+01  3.33071E-06  1.0E-07
  8.250E-03  5.18326E-09  2.52069E-15  9.00155E+01  3.43479E-06  1.0E-07
  8.500E-03  5.50215E-09  2.52069E-15  9.00155E+01  3.53888E-06  1.0E-07
  8.750E-03  5.83057E-09  2.52069E-15  9.00155E+01  3.64296E-06  1.0E-07
  9.000E-03  6.16850E-09  2.52069E-15  9.00155E+01  3.74705E-06  1.0E-07
  9.250E-03  6.51596E-09  2.52069E-15  9.00155E+01  3.85113E-06  1.0E-07
  9.500E-03  6.87293E-09  2.52069E-15  9.00155E+01  3.95522E-06  1.0E-07
  9.750E-03  7.23942E-09  2.52069E-15  9.00155E+01  4.05930E-06  1.0E-07
  1.000E-02  7.61544E-09  2.52069E-15  9.00155E+01  4.16339E-06  1.0E-07
  1.250E-02  1.18991E-08  2.52069E-15  9.00154E+01  5.20423E-06  1.0E-07
  1.500E-02  1.71347E-08  2.52069E-15  9.00154E+01  6.24508E-06  1.0E-07
  1.750E-02  2.33223E-08  2.52069E-15  9.00153E+01  7.28593E-06  1.0E-07
  2.000E-02  3.04617E-08  2.52068E-15  9.00153E+01  8.32678E-06  1.0E-07
  2.250E-02  3.85531E-08  2.52068E-15  9.00152E+01  9.36763E-06  1.0E-07
  2.500E-02  4.75965E-08  2.52068E-15  9.00151E+01  1.04085E-05  1.0E-07
  2.750E-02  5.75917E-08  2.52068E-15  9.00150E+01  1.14493E-05  1.0E-07
  3.000E-02  6.85389E-08  2.52067E-15  9.00149E+01  1.24902E-05  1.0E-07
  3.250E-02  8.04380E-08  2.52067E-15  9.00148E+01  1.35310E-05  1.0E-07
  3.500E-02  9.32891E-08  2.52067E-15  9.00146E+01  1.45719E-05  1.0E-07
  3.750E-02  1.07092E-07  2.52066E-15  9.00145E+01  1.56128E-05  1.0E-07
  4.000E-02  1.21847E-07  2.52066E-15  9.00144E+01  1.66536E-05  1.0E-07
  4.250E-02  1.37554E-07  2.52065E-15  9.00142E+01  1.76945E-05  1.0E-07
  4.500E-02  1.54213E-07  2.52065E-15  9.00141E+01  1.87354E-05  1.0E-07
  4.750E-02  1.71823E-07  2.52065E-15  9.00139E+01  1.97762E-05  1.0E-07
  5.000E-02  1.90386E-07  2.52064E-15  9.00137E+01  2.08171E-05  1.0E-07
  5.250E-02  2.09900E-07  2.52064E-15  9.00135E+01  2.18580E-05  1.0E-07
  5.500E-02  2.30367E-07  2.52063E-15  9.00133E+01  2.28989E-05  1.0E-07
  5.750E-02  2.51785E-07  2.52062E-15  9.00131E+01  2.39397E-05  1.0E-07
  6.000E-02  2.74156E-07  2.52062E-15  9.00129E+01  2.49806E-05  1.0E-07
  6.250E-02  2.97478E-07  2.52061E-15  9.00127E+01  2.60215E-05  1.0E-07
  6.500E-02  3.21752E-07  2.52060E-15  9.00124E+01  2.70624E-05  1.0E-07
  6.750E-02  3.46978E-07  2.52060E-15  9.00122E+01  2.81033E-05  1.0E-07
  7.000E-02  3.73156E-07  2.52059E-15  9.00119E+01  2.91442E-05  1.0E-07
  7.250E-02  4.00286E-07  2.52058E-15  9.00117E+01  3.01851E-05  1.0E-07
  7.500E-02  4.28368E-07  2.52058E-15  9.00114E+01  3.12260E-05  1.0E-07
  7.750E-02  4.57402E-07  2.52057E-15  9.00111E+01  3.22669E-05  1.0E-07
  8.000E-02  4.87388E-07  2.52056E-15  9.00108E+01  3.33078E-05  1.0E-07
  8.250E-02  5.18325E-07  2.52055E-15  9.00105E+01  3.43487E-05  1.0E-07
  8.500E-02  5.50215E-07  2.52054E-15  9.00102E+01  3.53897E-05  1.0E-07
  8.750E-02  5.83057E-07  2.52053E-15  9.00099E+01  3.64306E-05  1.0E-07
  9.000E-02  6.16850E-07  2.52052E-15  9.00096E+01  3.74715E-05  1.0E-07
  9.250E-02  6.51596E-07  2.52051E-15  9.00092E+01  3.85125E-05  1.0E-07
  9.500E-02  6.87293E-07  2.52051E-15  9.00089E+01  3.95534E-05  1.0E-07
  9.750E-02  7.23942E-07  2.52050E-15  9.00085E+01  4.05944E-05  1.0E-07
  1.000E-01  7.61543E-07  2.52048E-15  9.00081E+01  4.16353E-05  1.0E-07
  1.250E-01  1.18991E-06  2.52037E-15  9.00040E+01  5.20452E-05  1.0E-07
  1.500E-01  1.71347E-06  2.52023E-15  8.99989E+01  6.24557E-05  1.0E-07
  1.750E-01  2.33223E-06  2.52006E-15  8.99929E+01  7.28671E-05  1.0E-07
  2.000E-01  3.04617E-06  2.51986E-15  8.99859E+01  8.32794E-05  1.0E-07
  2.250E-01  3.85531E-06  2.51964E-15  8.99781E+01  9.36928E-05  1.0E-07
  2.500E-01  4.75964E-06  2.51940E-15  8.99693E+01  1.04107E-04  1.0E-07
  2.750E-01  5.75916E-06  2.51912E-15  8.99595E+01  1.14524E-04  1.0E-07
  3.000E-01  6.85388E-06  2.51883E-15  8.99489E+01  1.24941E-04  1.0E-07
  3.250E-01  8.04378E-06  2.51850E-15  8.99373E+01  1.35360E-04  1.0E-07
  3.500E-01  9.32888E-06  2.51815E-15  8.99249E+01  1.45781E-04  1.0E-07
  3.750E-01  1.07092E-05  2.51778E-15  8.99114E+01  1.56204E-04  1.0E-07
  4.000E-01  1.21846E-05  2.51738E-15  8.98971E+01  1.66629E-04  1.0E-07
  4.250E-01  1.37553E-05  2.51695E-15  8.98819E+01  1.77056E-04  1.0E-07
  4.500E-01  1.54212E-05  2.51650E-15  8.98657E+01  1.87486E-04  1.0E-07
  4.750E-01  1.71822E-05  2.51602E-15  8.98486E+01  1.97918E-04  1.0E-07
  5.000E-01  1.90385E-05  2.51551E-15  8.98306E+01  2.08352E-04  1.0E-07
  5.250E-01  2.09899E-05  2.51498E-15  8.98117E+01  2.18790E-04  1.0E-07
  5.500E-01  2.30365E-05  2.51443E-15  8.97918E+01  2.29230E-04  1.0E-07
  5.750E-01  2.51783E-05  2.51385E-15  8.97711E+01  2.39673E-04  1.0E-07
  6.000E-01  2.74153E-05  2.51324E-15  8.97494E+01  2.50119E-04  1.0E-07
  6.250E-01  2.97475E-05  2.51261E-15  8.97268E+01  2.60569E-04  1.0E-07
  6.500E-01  3.21749E-05  2.51195E-15  8.97033E+01  2.71022E-04  1.0E-07
  6.750E-01  3.46974E-05  2.51126E-15  8.96789E+01  2.81479E-04  1.0E-07
  7.000E-01  3.73152E-05  2.51055E-15  8.96535E+01  2.91939E-04  1.0E-07
  7.250E-01  4.00281E-05  2.50982E-15  8.96273E+01  3.02403E-04  1.0E-07
  7.500E-01  4.28362E-05  2.50906E-15  8.96001E+01  3.12872E-04  1.0E-07
  7.750E-01  4.57395E-05  2.50827E-15  8.95721E+01  3.23344E-04  1.0E-07
  8.000E-01  4.87380E-05  2.50746E-15  8.95431E+01  3.33820E-04  1.0E-07
  8.250E-01  5.18317E-05  2.50663E-15  8.95132E+01  3.44301E-04  1.0E-07
  8.500E-01  5.50205E-05  2.50576E-15  8.94825E+01  3.54787E-04  1.0E-07
  8.750E-01  5.83045E-05  2.50488E-15  8.94508E+01  3.65277E-04  1.0E-07
  9.000E-01  6.16838E-05  2.50397E-15  8.94182E+01  3.75772E-04  1.0E-07
  9.250E-01  6.51582E-05  2.50303E-15  8.93847E+01  3.86272E-04  1.0E-07
  9.500E-01  6.87277E-05  2.50207E-15  8.93504E+01  3.96777E-04  1.0E-07
  9.750E-01  7.23925E-05  2.50108E-15  8.93151E+01  4.07287E-04  1.0E-07
  1.000E+00  7.61524E-05  2.50006E-15  8.92789E+01  4.17802E-04  1.0E-07
  1.100E+00  9.21439E-05  2.49576E-15  8.91253E+01  4.59920E-04  1.0E-07
  1.200E+00  1.09658E-04  2.49106E-15  8.89575E+01  5.02134E-04  1.0E-07
  1.300E+00  1.28695E-04  2.48597E-15  8.87757E+01  5.44453E-04  1.0E-07
  1.400E+00  1.49255E-04  2.48049E-15  8.85798E+01  5.86885E-04  1.0E-07
  1.500E+00  1.71338E-04  2.47462E-15  8.83702E+01  6.29440E-04  1.0E-07
  1.600E+00  1.94942E-04  2.46836E-15  8.81468E+01  6.72125E-04  1.0E-07
  1.700E+00  2.20070E-04  2.46173E-15  8.79100E+01  7.14949E-04  1.0E-07
  1.800E+00  2.46720E-04  2.45472E-15  8.76598E+01  7.57921E-04  1.0E-07
  1.900E+00  2.74892E-04  2.44735E-15  8.73964E+01  8.01049E-04  1.0E-07
  2.000E+00  3.04586E-04  2.43961E-15  8.71199E+01  8.44341E-04  1.0E-07
  2.100E+00  3.35803E-04  2.43151E-15  8.68307E+01  8.87807E-04  1.0E-07
  2.200E+00  3.68542E-04  2.42305E-15  8.65288E+01  9.31453E-04  1.0E-07
  2.300E+00  4.02802E-04  2.41425E-15  8.62144E+01  9.75289E-04  1.0E-07
  2.400E+00  4.38585E-04  2.40511E-15  8.58879E+01  1.01932E-03  1.0E-07
  2.500E+00  4.75889E-04  2.39562E-15  8.55493E+01  1.06356E-03  1.0E-07
  2.600E+00  5.14715E-04  2.38581E-15  8.51989E+01  1.10801E-03  1.0E-07
  2.700E+00  5.55063E-04  2.37568E-15  8.48369E+01  1.15269E-03  1.0E-07
  2.800E+00  5.96931E-04  2.36522E-15  8.44636E+01  1.19759E-03  1.0E-07
  2.900E+00  6.40321E-04  2.35446E-15  8.40792E+01  1.24274E-03  1.0E-07
  3.000E+00  6.85233E-04  2.34339E-15  8.36839E+01  1.28812E-03  1.0E-07
  3.100E+00  7.31665E-04  2.33202E-15  8.32780E+01  1.33377E-03  1.0E-07
  3.200E+00  7.79618E-04  2.32036E-15  8.28617E+01  1.37967E-03  1.0E-07
  3.300E+00  8.29092E-04  2.30843E-15  8.24354E+01  1.42584E-03  1.0E-07
  3.400E+00  8.80086E-04  2.29621E-15  8.19991E+01  1.47229E-03  1.0E-07
  3.500E+00  9.32601E-04  2.28373E-15  8.15533E+01  1.51902E-03  1.0E-07
  3.600E+00  9.86636E-04  2.27098E-15  8.10982E+01  1.56604E-03  1.0E-07
  3.700E+00  1.04219E-03  2.25798E-15  8.06340E+01  1.61336E-03  1.0E-07
  3.800E+00  1.09927E-03  2.24474E-15  8.01611E+01  1.66098E-03  1.0E-07
  3.900E+00  1.15786E-03  2.23126E-15  7.96796E+01  1.70892E-03  1.0E-07
  4.000E+00  1.21797E-03  2.21754E-15  7.91900E+01  1.75718E-03  1.0E-07
  4.100E+00  1.27961E-03  2.20361E-15  7.86923E+01  1.80576E-03  1.0E-07
  4.200E+00  1.34276E-03  2.18946E-15  7.81870E+01  1.85468E-03  1.0E-07
  4.300E+00  1.40743E-03  2.17510E-15  7.76743E+01  1.90394E-03  1.0E-07
  4.400E+00  1.47362E-03  2.16055E-15  7.71545E+01  1.95354E-03  1.0E-07
  4.500E+00  1.54133E-03  2.14580E-15  7.66279E+01  2.00349E-03  1.0E-07
  4.600E+00  1.61056E-03  2.13087E-15  7.60947E+01  2.05381E-03  1.0E-07
  4.700E+00  1.68131E-03  2.11576E-15  7.55553E+01  2.10448E-03  1.0E-07
  4.800E+00  1.75357E-03  2.10049E-15  7.50099E+01  2.15553E-03  1.0E-07
  4.900E+00  1.82735E-03  2.08506E-15  7.44588E+01  2.20696E-03  1.0E-07
  5.000E+00  1.90265E-03  2.06947E-15  7.39022E+01  2.25877E-03  1.0E-07
  5.100E+00  1.97947E-03  2.05374E-15  7.33405E+01  2.31097E-03  1.0E-07
  5.200E+00  2.05780E-03  2.03788E-15  7.27740E+01  2.36356E-03  1.0E-07
  5.300E+00  2.13765E-03  2.02188E-15  7.22028E+01  2.41655E-03  1.0E-07
  5.400E+00  2.21902E-03  2.00577E-15  7.16273E+01  2.46995E-03  1.0E-07
  5.500E+00  2.30190E-03  1.98954E-15  7.10478E+01  2.52375E-03  1.0E-07
  5.600E+00  2.38630E-03  1.97321E-15  7.04645E+01  2.57797E-03  1.0E-07
  5.700E+00  2.47222E-03  1.95677E-15  6.98777E+01  2.63261E-03  1.0E-07
  5.800E+00  2.55965E-03  1.94025E-15  6.92876E+01  2.68767E-03  1.0E-07
  5.900E+00  2.64859E-03  1.92364E-15  6.86945E+01  2.74316E-03  1.0E-07
  6.000E+00  2.73905E-03  1.90696E-15  6.80987E+01  2.79908E-03  1.0E-07
  6.100E+00  2.83103E-03  1.89020E-15  6.75003E+01  2.85544E-03  1.0E-07
  6.200E+00  2.92452E-03  1.87338E-15  6.68998E+01  2.91224E-03  1.0E-07
  6.300E+00  3.01952E-03  1.85651E-15  6.62972E+01  2.96948E-03  1.0E-07
  6.400E+00  3.11604E-03  1.83959E-15  6.56929E+01  3.02717E-03  1.0E-07
  6.500E+00  3.21407E-03  1.82262E-15  6.50871E+01  3.08531E-03  1.0E-07
  6.600E+00  3.31362E-03  1.80562E-15  6.44800E+01  3.14391E-03  1.0E-07
  6.700E+00  3.41468E-03  1.78859E-15  6.38718E+01  3.20296E-03  1.0E-07
  6.800E+00  3.51725E-03  1.77154E-15  6.32628E+01  3.26247E-03  1.0E-07
  6.900E+00  3.62133E-03  1.75447E-15  6.26532E+01  3.32244E-03  1.0E-07
  7.000E+00  3.72692E-03  1.73739E-15  6.20432E+01  3.38287E-03  1.0E-07
  7.100E+00  3.83403E-03  1.72030E-15  6.14331E+01  3.44378E-03  1.0E-07
  7.200E+00  3.94265E-03  1.70322E-15  6.08229E+01  3.50515E-03  1.0E-07
  7.300E+00  4.05278E-03  1.68614E-15  6.02130E+01  3.56699E-03  1.0E-07
  7.400E+00  4.16442E-03  1.66907E-15  5.96035E+01  3.62930E-03  1.0E-07
  7.500E+00  4.27757E-03  1.65202E-15  5.89946E+01  3.69208E-03  1.0E-07
  7.600E+00  4.39223E-03  1.63499E-15  5.83865E+01  3.75534E-03  1.0E-07
  7.700E+00  4.50840E-03  1.61799E-15  5.77794E+01  3.81907E-03  1.0E-07
  7.800E+00  4.62608E-03  1.60102E-15  5.71734E+01  3.88327E-03  1.0E-07
  7.900E+00  4.74527E-03  1.58409E-15  5.65688E+01  3.94796E-03  1.0E-07
  8.000E+00  4.86597E-03  1.56720E-15  5.59657E+01  4.01311E-03  1.0E-07
  8.100E+00  4.98817E-03  1.55036E-15  5.53642E+01  4.07874E-03  1.0E-07
  8.200E+00  5.11188E-03  1.53356E-15  5.47645E+01  4.14485E-03  1.0E-07
  8.300E+00  5.23711E-03  1.51683E-15  5.41668E+01  4.21143E-03  1.0E-07
  8.400E+00  5.36383E-03  1.50015E-15  5.35712E+01  4.27848E-03  1.0E-07
  8.500E+00  5.49207E-03  1.48353E-15  5.29779E+01  4.34600E-03  1.0E-07
  8.600E+00  5.62181E-03  1.46698E-15  5.23869E+01  4.41400E-03  1.0E-07
  8.700E+00  5.75306E-03  1.45051E-15  5.17985E+01  4.48246E-03  1.0E-07
  8.800E+00  5.88581E-03  1.43410E-15  5.12127E+01  4.55139E-03  1.0E-07
  8.900E+00  6.02007E-03  1.41777E-15  5.06297E+01  4.62079E-03  1.0E-07
  9.000E+00  6.15583E-03  1.40153E-15  5.00495E+01  4.69064E-03  1.0E-07
  9.100E+00  6.29310E-03  1.38537E-15  4.94724E+01  4.76096E-03  1.0E-07
  9.200E+00  6.43187E-03  1.36929E-15  4.88983E+01  4.83173E-03  1.0E-07
  9.300E+00  6.57214E-03  1.35331E-15  4.83275E+01  4.90296E-03  1.0E-07
  9.400E+00  6.71392E-03  1.33741E-15  4.77599E+01  4.97463E-03  1.0E-07
  9.500E+00  6.85720E-03  1.32162E-15  4.71958E+01  5.04676E-03  1.0E-07
  9.600E+00  7.00198E-03  1.30592E-15  4.66351E+01  5.11932E-03  1.0E-07
  9.700E+00  7.14827E-03  1.29031E-15  4.60780E+01  5.19232E-03  1.0E-07
  9.800E+00  7.29605E-03  1.27482E-15  4.55245E+01  5.26576E-03  1.0E-07
  9.900E+00  7.44534E-03  1.25942E-15  4.49748E+01  5.33962E-03  1.0E-07
  1.000E+01  7.59612E-03  1.24413E-15  4.44289E+01  5.41391E-03  1.0E-07
  1.025E+01  7.97965E-03  1.20639E-15  4.30811E+01  5.60144E-03  1.0E-07
  1.050E+01  8.37255E-03  1.16935E-15  4.17584E+01  5.79150E-03  1.0E-07
  1.075E+01  8.77480E-03  1.13304E-15  4.04615E+01  5.98397E-03  1.0E-07
  1.100E+01  9.18641E-03  1.09747E-15  3.91912E+01  6.17874E-03  1.0E-07
  1.125E+01  9.60736E-03  1.06265E-15  3.79480E+01  6.37569E-03  1.0E-07
  1.150E+01  1.00376E-02  1.02861E-15  3.67322E+01  6.57469E-03  1.0E-07
  1.175E+01  1.04773E-02  9.95341E-16  3.55443E+01  6.77559E-03  1.0E-07
  1.200E+01  1.09262E-02  9.62857E-16  3.43843E+01  6.97822E-03  1.0E-07
  1.225E+01  1.13844E-02  9.31159E-16  3.32523E+01  7.18243E-03  1.0E-07
  1.250E+01  1.18520E-02  9.00247E-16  3.21484E+01  7.38803E-03  1.0E-07
  1.275E+01  1.23288E-02  8.70118E-16  3.10725E+01  7.59483E-03  1.0E-07
  1.300E+01  1.28150E-02  8.40770E-16  3.00244E+01  7.80264E-03  1.0E-07
  1.325E+01  1.33104E-02  8.12195E-16  2.90040E+01  8.01123E-03  1.0E-07
  1.350E+01  1.38150E-02  7.84387E-16  2.80110E+01  8.22038E-03  1.0E-07
  1.375E+01  1.43290E-02  7.57337E-16  2.70450E+01  8.42986E-03  1.0E-07
  1.400E+01  1.48521E-02  7.31035E-16  2.61057E+01  8.63941E-03  1.0E-07
  1.425E+01  1.53845E-02  7.05470E-16  2.51928E+01  8.84878E-03  1.0E-07
  1.450E+01  1.59262E-02  6.80629E-16  2.43057E+01  9.05769E-03  1.0E-07
  1.475E+01  1.64770E-02  6.56499E-16  2.34440E+01  9.26586E-03  1.0E-07
  1.500E+01  1.70371E-02  6.33069E-16  2.26073E+01  9.47299E-03  1.0E-07
  1.525E+01  1.76063E-02  6.10322E-16  2.17950E+01  9.67876E-03  1.0E-07
  1.550E+01  1.81848E-02  5.88246E-16  2.10067E+01  9.88285E-03  1.0E-07
