 #
 # Subroutine ELSEPA. Elastic scattering of electrons and positrons
 #                    by neutral atoms and positive ions
 #
 # Projectile: electron
 # Kinetic energy = 7.00000E+01 eV = 2.57245E+00 a.u.
 #
 #  ***  WARNING: Energy is too low.
 #                The reliability of the results is questionable.
 #
 # Element: Hg,  Z =  80,  atomic weight = 2.00590E+02 g/mol
 #
 # Nuclear model: Fermi distribution
 #                Average radius = 6.26355E-13 cm
 #                Skin thickness = 5.46000E-14 cm
 #
 # Number of electrons = 80
 #
 # Electron density: analytical TFM model
 #                   A1 =  1.00000D-01 ,   ALPHA1 = 2.92015D+01
 #                   A2 =  5.50000D-01 ,   ALPHA2 = 5.84029D+00
 #                   A3 =  3.50000D-01 ,   ALPHA3 = 1.46007D+00
 #                   Volume integral = 8.00000E+01
 #
 # Furness-McCarthy exchange potential
 #
 # Total elastic cross section = 7.35825E-16 cm**2 = 2.62768E+01 a0**2
 # 1st transport cross section = 5.51069E-16 cm**2 = 1.96790E+01 a0**2
 # 2nd transport cross section = 5.06440E-16 cm**2 = 1.80853E+01 a0**2
 #
 #
 # Differential cross section:                       MU=(1-COS(THETA))/2
 #
 #  THETA        MU          DCS          DCS        Sherman      error
 #  (deg)                 (cm**2/sr)   (a0**2/sr)    function
 #----------------------------------------------------------------------
  0.000E+00  0.00000E+00  1.15329E-15  4.11847E+01  0.00000E+00  1.0E-07
  1.000E-04  7.61557E-13  1.15329E-15  4.11847E+01 -1.04920E-07  1.0E-07
  1.250E-04  1.18994E-12  1.15329E-15  4.11847E+01 -1.31149E-07  1.0E-07
  1.500E-04  1.71346E-12  1.15329E-15  4.11847E+01 -1.57379E-07  1.0E-07
  1.750E-04  2.33225E-12  1.15329E-15  4.11847E+01 -1.83609E-07  1.0E-07
  2.000E-04  3.04617E-12  1.15329E-15  4.11847E+01 -2.09839E-07  1.0E-07
  2.250E-04  3.85530E-12  1.15329E-15  4.11847E+01 -2.36069E-07  1.0E-07
  2.500E-04  4.75964E-12  1.15329E-15  4.11847E+01 -2.62299E-07  1.0E-07
  2.750E-04  5.75917E-12  1.15329E-15  4.11847E+01 -2.88529E-07  1.0E-07
  3.000E-04  6.85391E-12  1.15329E-15  4.11847E+01 -3.14759E-07  1.0E-07
  3.250E-04  8.04379E-12  1.15329E-15  4.11847E+01 -3.40989E-07  1.0E-07
  3.500E-04  9.32893E-12  1.15329E-15  4.11847E+01 -3.67219E-07  1.0E-07
  3.750E-04  1.07092E-11  1.15329E-15  4.11847E+01 -3.93448E-07  1.0E-07
  4.000E-04  1.21847E-11  1.15329E-15  4.11847E+01 -4.19678E-07  1.0E-07
  4.250E-04  1.37554E-11  1.15329E-15  4.11847E+01 -4.45908E-07  1.0E-07
  4.500E-04  1.54213E-11  1.15329E-15  4.11847E+01 -4.72138E-07  1.0E-07
  4.750E-04  1.71823E-11  1.15329E-15  4.11847E+01 -4.98368E-07  1.0E-07
  5.000E-04  1.90386E-11  1.15329E-15  4.11847E+01 -5.24598E-07  1.0E-07
  5.250E-04  2.09900E-11  1.15329E-15  4.11847E+01 -5.50828E-07  1.0E-07
  5.500E-04  2.30367E-11  1.15329E-15  4.11847E+01 -5.77058E-07  1.0E-07
  5.750E-04  2.51785E-11  1.15329E-15  4.11847E+01 -6.03288E-07  1.0E-07
  6.000E-04  2.74156E-11  1.15329E-15  4.11847E+01 -6.29518E-07  1.0E-07
  6.250E-04  2.97478E-11  1.15329E-15  4.11847E+01 -6.55747E-07  1.0E-07
  6.500E-04  3.21752E-11  1.15329E-15  4.11847E+01 -6.81977E-07  1.0E-07
  6.750E-04  3.46979E-11  1.15329E-15  4.11847E+01 -7.08207E-07  1.0E-07
  7.000E-04  3.73157E-11  1.15329E-15  4.11847E+01 -7.34437E-07  1.0E-07
  7.250E-04  4.00286E-11  1.15329E-15  4.11847E+01 -7.60667E-07  1.0E-07
  7.500E-04  4.28368E-11  1.15329E-15  4.11847E+01 -7.86897E-07  1.0E-07
  7.750E-04  4.57402E-11  1.15329E-15  4.11847E+01 -8.13127E-07  1.0E-07
  8.000E-04  4.87388E-11  1.15329E-15  4.11847E+01 -8.39357E-07  1.0E-07
  8.250E-04  5.18325E-11  1.15329E-15  4.11847E+01 -8.65587E-07  1.0E-07
  8.500E-04  5.50215E-11  1.15329E-15  4.11847E+01 -8.91817E-07  1.0E-07
  8.750E-04  5.83057E-11  1.15329E-15  4.11847E+01 -9.18046E-07  1.0E-07
  9.000E-04  6.16850E-11  1.15329E-15  4.11847E+01 -9.44276E-07  1.0E-07
  9.250E-04  6.51595E-11  1.15329E-15  4.11847E+01 -9.70506E-07  1.0E-07
  9.500E-04  6.87293E-11  1.15329E-15  4.11847E+01 -9.96736E-07  1.0E-07
  9.750E-04  7.23943E-11  1.15329E-15  4.11847E+01 -1.02297E-06  1.0E-07
  1.000E-03  7.61544E-11  1.15329E-15  4.11847E+01 -1.04920E-06  1.0E-07
  1.250E-03  1.18991E-10  1.15329E-15  4.11847E+01 -1.31149E-06  1.0E-07
  1.500E-03  1.71347E-10  1.15329E-15  4.11847E+01 -1.57379E-06  1.0E-07
  1.750E-03  2.33223E-10  1.15329E-15  4.11847E+01 -1.83609E-06  1.0E-07
  2.000E-03  3.04617E-10  1.15329E-15  4.11847E+01 -2.09839E-06  1.0E-07
  2.250E-03  3.85531E-10  1.15329E-15  4.11847E+01 -2.36069E-06  1.0E-07
  2.500E-03  4.75965E-10  1.15329E-15  4.11847E+01 -2.62299E-06  1.0E-07
  2.750E-03  5.75917E-10  1.15329E-15  4.11847E+01 -2.88529E-06  1.0E-07
  3.000E-03  6.85389E-10  1.15329E-15  4.11847E+01 -3.14759E-06  1.0E-07
  3.250E-03  8.04380E-10  1.15329E-15  4.11847E+01 -3.40989E-06  1.0E-07
  3.500E-03  9.32891E-10  1.15329E-15  4.11847E+01 -3.67219E-06  1.0E-07
  3.750E-03  1.07092E-09  1.15329E-15  4.11847E+01 -3.93448E-06  1.0E-07
  4.000E-03  1.21847E-09  1.15329E-15  4.11847E+01 -4.19678E-06  1.0E-07
  4.250E-03  1.37554E-09  1.15329E-15  4.11847E+01 -4.45908E-06  1.0E-07
  4.500E-03  1.54213E-09  1.15329E-15  4.11847E+01 -4.72138E-06  1.0E-07
  4.750E-03  1.71823E-09  1.15329E-15  4.11847E+01 -4.98368E-06  1.0E-07
  5.000E-03  1.90386E-09  1.15329E-15  4.11847E+01 -5.24598E-06  1.0E-07
  5.250E-03  2.09900E-09  1.15329E-15  4.11847E+01 -5.50828E-06  1.0E-07
  5.500E-03  2.30367E-09  1.15329E-15  4.11847E+01 -5.77058E-06  1.0E-07
  5.750E-03  2.51785E-09  1.15329E-15  4.11847E+01 -6.03288E-06  1.0E-07
  6.000E-03  2.74156E-09  1.15329E-15  4.11847E+01 -6.29518E-06  1.0E-07
  6.250E-03  2.97478E-09  1.15329E-15  4.11847E+01 -6.55748E-06  1.0E-07
  6.500E-03  3.21752E-09  1.15329E-15  4.11847E+01 -6.81977E-06  1.0E-07
  6.750E-03  3.46978E-09  1.15329E-15  4.11847E+01 -7.08207E-06  1.0E-07
  7.000E-03  3.73156E-09  1.15329E-15  4.11847E+01 -7.34437E-06  1.0E-07
  7.250E-03  4.00286E-09  1.15329E-15  4.11847E+01 -7.60667E-06  1.0E-07
  7.500E-03  4.28368E-09  1.15329E-15  4.11847E+01 -7.86897E-06  1.0E-07
  7.750E-03  4.57402E-09  1.15329E-15  4.11847E+01 -8.13127E-06  1.0E-07
  8.000E-03  4.87388E-09  1.15329E-15  4.11847E+01 -8.39357E-06  1.0E-07
  8.250E-03  5.18326E-09  1.15329E-15  4.11847E+01 -8.65587E-06  1.0E-07
  8.500E-03  5.50215E-09  1.15329E-15  4.11847E+01 -8.91817E-06  1.0E-07
  8.750E-03  5.83057E-09  1.15329E-15  4.11847E+01 -9.18047E-06  1.0E-07
  9.000E-03  6.16850E-09  1.15329E-15  4.11847E+01 -9.44277E-06  1.0E-07
  9.250E-03  6.51596E-09  1.15329E-15  4.11847E+01 -9.70506E-06  1.0E-07
  9.500E-03  6.87293E-09  1.15329E-15  4.11847E+01 -9.96736E-06  1.0E-07
  9.750E-03  7.23942E-09  1.15329E-15  4.11847E+01 -1.02297E-05  1.0E-07
  1.000E-02  7.61544E-09  1.15329E-15  4.11847E+01 -1.04920E-05  1.0E-07
  1.250E-02  1.18991E-08  1.15329E-15  4.11847E+01 -1.31150E-05  1.0E-07
  1.500E-02  1.71347E-08  1.15329E-15  4.11847E+01 -1.57379E-05  1.0E-07
  1.750E-02  2.33223E-08  1.15329E-15  4.11846E+01 -1.83609E-05  1.0E-07
  2.000E-02  3.04617E-08  1.15329E-15  4.11846E+01 -2.09839E-05  1.0E-07
  2.250E-02  3.85531E-08  1.15329E-15  4.11846E+01 -2.36069E-05  1.0E-07
  2.500E-02  4.75965E-08  1.15329E-15  4.11846E+01 -2.62299E-05  1.0E-07
  2.750E-02  5.75917E-08  1.15329E-15  4.11846E+01 -2.88530E-05  1.0E-07
  3.000E-02  6.85389E-08  1.15328E-15  4.11845E+01 -3.14760E-05  1.0E-07
  3.250E-02  8.04380E-08  1.15328E-15  4.11845E+01 -3.40990E-05  1.0E-07
  3.500E-02  9.32891E-08  1.15328E-15  4.11845E+01 -3.67220E-05  1.0E-07
  3.750E-02  1.07092E-07  1.15328E-15  4.11844E+01 -3.93450E-05  1.0E-07
  4.000E-02  1.21847E-07  1.15328E-15  4.11844E+01 -4.19680E-05  1.0E-07
  4.250E-02  1.37554E-07  1.15328E-15  4.11844E+01 -4.45911E-05  1.0E-07
  4.500E-02  1.54213E-07  1.15328E-15  4.11843E+01 -4.72141E-05  1.0E-07
  4.750E-02  1.71823E-07  1.15328E-15  4.11843E+01 -4.98372E-05  1.0E-07
  5.000E-02  1.90386E-07  1.15328E-15  4.11842E+01 -5.24602E-05  1.0E-07
  5.250E-02  2.09900E-07  1.15327E-15  4.11842E+01 -5.50833E-05  1.0E-07
  5.500E-02  2.30367E-07  1.15327E-15  4.11841E+01 -5.77063E-05  1.0E-07
  5.750E-02  2.51785E-07  1.15327E-15  4.11841E+01 -6.03294E-05  1.0E-07
  6.000E-02  2.74156E-07  1.15327E-15  4.11840E+01 -6.29525E-05  1.0E-07
  6.250E-02  2.97478E-07  1.15327E-15  4.11839E+01 -6.55755E-05  1.0E-07
  6.500E-02  3.21752E-07  1.15327E-15  4.11839E+01 -6.81986E-05  1.0E-07
  6.750E-02  3.46978E-07  1.15326E-15  4.11838E+01 -7.08217E-05  1.0E-07
  7.000E-02  3.73156E-07  1.15326E-15  4.11837E+01 -7.34448E-05  1.0E-07
  7.250E-02  4.00286E-07  1.15326E-15  4.11837E+01 -7.60679E-05  1.0E-07
  7.500E-02  4.28368E-07  1.15326E-15  4.11836E+01 -7.86911E-05  1.0E-07
  7.750E-02  4.57402E-07  1.15326E-15  4.11835E+01 -8.13142E-05  1.0E-07
  8.000E-02  4.87388E-07  1.15325E-15  4.11834E+01 -8.39373E-05  1.0E-07
  8.250E-02  5.18325E-07  1.15325E-15  4.11834E+01 -8.65605E-05  1.0E-07
  8.500E-02  5.50215E-07  1.15325E-15  4.11833E+01 -8.91837E-05  1.0E-07
  8.750E-02  5.83057E-07  1.15325E-15  4.11832E+01 -9.18068E-05  1.0E-07
  9.000E-02  6.16850E-07  1.15324E-15  4.11831E+01 -9.44300E-05  1.0E-07
  9.250E-02  6.51596E-07  1.15324E-15  4.11830E+01 -9.70532E-05  1.0E-07
  9.500E-02  6.87293E-07  1.15324E-15  4.11829E+01 -9.96764E-05  1.0E-07
  9.750E-02  7.23942E-07  1.15324E-15  4.11828E+01 -1.02300E-04  1.0E-07
  1.000E-01  7.61543E-07  1.15323E-15  4.11827E+01 -1.04923E-04  1.0E-07
  1.250E-01  1.18991E-06  1.15320E-15  4.11816E+01 -1.31156E-04  1.0E-07
  1.500E-01  1.71347E-06  1.15316E-15  4.11803E+01 -1.57390E-04  1.0E-07
  1.750E-01  2.33223E-06  1.15312E-15  4.11787E+01 -1.83627E-04  1.0E-07
  2.000E-01  3.04617E-06  1.15307E-15  4.11768E+01 -2.09865E-04  1.0E-07
  2.250E-01  3.85531E-06  1.15301E-15  4.11747E+01 -2.36106E-04  1.0E-07
  2.500E-01  4.75964E-06  1.15294E-15  4.11724E+01 -2.62350E-04  1.0E-07
  2.750E-01  5.75916E-06  1.15287E-15  4.11698E+01 -2.88597E-04  1.0E-07
  3.000E-01  6.85388E-06  1.15279E-15  4.11670E+01 -3.14847E-04  1.0E-07
  3.250E-01  8.04378E-06  1.15271E-15  4.11639E+01 -3.41101E-04  1.0E-07
  3.500E-01  9.32888E-06  1.15261E-15  4.11605E+01 -3.67358E-04  1.0E-07
  3.750E-01  1.07092E-05  1.15251E-15  4.11570E+01 -3.93620E-04  1.0E-07
  4.000E-01  1.21846E-05  1.15241E-15  4.11532E+01 -4.19887E-04  1.0E-07
  4.250E-01  1.37553E-05  1.15229E-15  4.11491E+01 -4.46159E-04  1.0E-07
  4.500E-01  1.54212E-05  1.15217E-15  4.11448E+01 -4.72435E-04  1.0E-07
  4.750E-01  1.71822E-05  1.15204E-15  4.11402E+01 -4.98718E-04  1.0E-07
  5.000E-01  1.90385E-05  1.15191E-15  4.11354E+01 -5.25006E-04  1.0E-07
  5.250E-01  2.09899E-05  1.15177E-15  4.11304E+01 -5.51300E-04  1.0E-07
  5.500E-01  2.30365E-05  1.15162E-15  4.11251E+01 -5.77600E-04  1.0E-07
  5.750E-01  2.51783E-05  1.15146E-15  4.11195E+01 -6.03908E-04  1.0E-07
  6.000E-01  2.74153E-05  1.15130E-15  4.11137E+01 -6.30222E-04  1.0E-07
  6.250E-01  2.97475E-05  1.15113E-15  4.11077E+01 -6.56544E-04  1.0E-07
  6.500E-01  3.21749E-05  1.15096E-15  4.11014E+01 -6.82873E-04  1.0E-07
  6.750E-01  3.46974E-05  1.15077E-15  4.10949E+01 -7.09211E-04  1.0E-07
  7.000E-01  3.73152E-05  1.15059E-15  4.10882E+01 -7.35556E-04  1.0E-07
  7.250E-01  4.00281E-05  1.15039E-15  4.10811E+01 -7.61910E-04  1.0E-07
  7.500E-01  4.28362E-05  1.15019E-15  4.10739E+01 -7.88274E-04  1.0E-07
  7.750E-01  4.57395E-05  1.14998E-15  4.10664E+01 -8.14646E-04  1.0E-07
  8.000E-01  4.87380E-05  1.14976E-15  4.10586E+01 -8.41028E-04  1.0E-07
  8.250E-01  5.18317E-05  1.14954E-15  4.10506E+01 -8.67419E-04  1.0E-07
  8.500E-01  5.50205E-05  1.14930E-15  4.10424E+01 -8.93821E-04  1.0E-07
  8.750E-01  5.83045E-05  1.14907E-15  4.10339E+01 -9.20233E-04  1.0E-07
  9.000E-01  6.16838E-05  1.14882E-15  4.10252E+01 -9.46656E-04  1.0E-07
  9.250E-01  6.51582E-05  1.14857E-15  4.10162E+01 -9.73090E-04  1.0E-07
  9.500E-01  6.87277E-05  1.14831E-15  4.10070E+01 -9.99535E-04  1.0E-07
  9.750E-01  7.23925E-05  1.14805E-15  4.09976E+01 -1.02599E-03  1.0E-07
  1.000E+00  7.61524E-05  1.14778E-15  4.09879E+01 -1.05246E-03  1.0E-07
  1.100E+00  9.21439E-05  1.14662E-15  4.09467E+01 -1.15846E-03  1.0E-07
  1.200E+00  1.09658E-04  1.14536E-15  4.09016E+01 -1.26468E-03  1.0E-07
  1.300E+00  1.28695E-04  1.14399E-15  4.08526E+01 -1.37114E-03  1.0E-07
  1.400E+00  1.49255E-04  1.14251E-15  4.07998E+01 -1.47785E-03  1.0E-07
  1.500E+00  1.71338E-04  1.14092E-15  4.07431E+01 -1.58484E-03  1.0E-07
  1.600E+00  1.94942E-04  1.13923E-15  4.06826E+01 -1.69212E-03  1.0E-07
  1.700E+00  2.20070E-04  1.13743E-15  4.06183E+01 -1.79973E-03  1.0E-07
  1.800E+00  2.46720E-04  1.13552E-15  4.05502E+01 -1.90767E-03  1.0E-07
  1.900E+00  2.74892E-04  1.13351E-15  4.04783E+01 -2.01596E-03  1.0E-07
  2.000E+00  3.04586E-04  1.13139E-15  4.04027E+01 -2.12464E-03  1.0E-07
  2.100E+00  3.35803E-04  1.12917E-15  4.03234E+01 -2.23372E-03  1.0E-07
  2.200E+00  3.68542E-04  1.12684E-15  4.02403E+01 -2.34322E-03  1.0E-07
  2.300E+00  4.02802E-04  1.12441E-15  4.01535E+01 -2.45316E-03  1.0E-07
  2.400E+00  4.38585E-04  1.12188E-15  4.00631E+01 -2.56356E-03  1.0E-07
  2.500E+00  4.75889E-04  1.11925E-15  3.99690E+01 -2.67445E-03  1.0E-07
  2.600E+00  5.14715E-04  1.11651E-15  3.98714E+01 -2.78584E-03  1.0E-07
  2.700E+00  5.55063E-04  1.11368E-15  3.97701E+01 -2.89776E-03  1.0E-07
  2.800E+00  5.96931E-04  1.11074E-15  3.96652E+01 -3.01023E-03  1.0E-07
  2.900E+00  6.40321E-04  1.10770E-15  3.95569E+01 -3.12327E-03  1.0E-07
  3.000E+00  6.85233E-04  1.10457E-15  3.94450E+01 -3.23690E-03  1.0E-07
  3.100E+00  7.31665E-04  1.10134E-15  3.93296E+01 -3.35115E-03  1.0E-07
  3.200E+00  7.79618E-04  1.09801E-15  3.92108E+01 -3.46604E-03  1.0E-07
  3.300E+00  8.29092E-04  1.09459E-15  3.90886E+01 -3.58159E-03  1.0E-07
  3.400E+00  8.80086E-04  1.09107E-15  3.89630E+01 -3.69782E-03  1.0E-07
  3.500E+00  9.32601E-04  1.08746E-15  3.88340E+01 -3.81476E-03  1.0E-07
  3.600E+00  9.86636E-04  1.08376E-15  3.87017E+01 -3.93243E-03  1.0E-07
  3.700E+00  1.04219E-03  1.07996E-15  3.85661E+01 -4.05086E-03  1.0E-07
  3.800E+00  1.09927E-03  1.07607E-15  3.84273E+01 -4.17007E-03  1.0E-07
  3.900E+00  1.15786E-03  1.07210E-15  3.82853E+01 -4.29007E-03  1.0E-07
  4.000E+00  1.21797E-03  1.06803E-15  3.81401E+01 -4.41091E-03  1.0E-07
  4.100E+00  1.27961E-03  1.06388E-15  3.79918E+01 -4.53260E-03  1.0E-07
  4.200E+00  1.34276E-03  1.05964E-15  3.78403E+01 -4.65516E-03  1.0E-07
  4.300E+00  1.40743E-03  1.05531E-15  3.76859E+01 -4.77863E-03  1.0E-07
  4.400E+00  1.47362E-03  1.05090E-15  3.75283E+01 -4.90303E-03  1.0E-07
  4.500E+00  1.54133E-03  1.04641E-15  3.73679E+01 -5.02838E-03  1.0E-07
  4.600E+00  1.61056E-03  1.04183E-15  3.72044E+01 -5.15472E-03  1.0E-07
  4.700E+00  1.68131E-03  1.03717E-15  3.70381E+01 -5.28206E-03  1.0E-07
  4.800E+00  1.75357E-03  1.03244E-15  3.68689E+01 -5.41043E-03  1.0E-07
  4.900E+00  1.82735E-03  1.02762E-15  3.66970E+01 -5.53987E-03  1.0E-07
  5.000E+00  1.90265E-03  1.02273E-15  3.65222E+01 -5.67039E-03  1.0E-07
  5.100E+00  1.97947E-03  1.01776E-15  3.63447E+01 -5.80204E-03  1.0E-07
  5.200E+00  2.05780E-03  1.01271E-15  3.61646E+01 -5.93483E-03  1.0E-07
  5.300E+00  2.13765E-03  1.00759E-15  3.59818E+01 -6.06879E-03  1.0E-07
  5.400E+00  2.21902E-03  1.00240E-15  3.57964E+01 -6.20397E-03  1.0E-07
  5.500E+00  2.30190E-03  9.97140E-16  3.56085E+01 -6.34037E-03  1.0E-07
  5.600E+00  2.38630E-03  9.91809E-16  3.54181E+01 -6.47804E-03  1.0E-07
  5.700E+00  2.47222E-03  9.86408E-16  3.52253E+01 -6.61700E-03  1.0E-07
  5.800E+00  2.55965E-03  9.80941E-16  3.50300E+01 -6.75729E-03  1.0E-07
  5.900E+00  2.64859E-03  9.75407E-16  3.48324E+01 -6.89894E-03  1.0E-07
  6.000E+00  2.73905E-03  9.69810E-16  3.46325E+01 -7.04198E-03  1.0E-07
  6.100E+00  2.83103E-03  9.64149E-16  3.44304E+01 -7.18644E-03  1.0E-07
  6.200E+00  2.92452E-03  9.58426E-16  3.42260E+01 -7.33235E-03  1.0E-07
  6.300E+00  3.01952E-03  9.52643E-16  3.40195E+01 -7.47976E-03  1.0E-07
  6.400E+00  3.11604E-03  9.46802E-16  3.38109E+01 -7.62868E-03  1.0E-07
  6.500E+00  3.21407E-03  9.40902E-16  3.36002E+01 -7.77916E-03  1.0E-07
  6.600E+00  3.31362E-03  9.34947E-16  3.33876E+01 -7.93124E-03  1.0E-07
  6.700E+00  3.41468E-03  9.28937E-16  3.31729E+01 -8.08494E-03  1.0E-07
  6.800E+00  3.51725E-03  9.22873E-16  3.29564E+01 -8.24031E-03  1.0E-07
  6.900E+00  3.62133E-03  9.16758E-16  3.27380E+01 -8.39738E-03  1.0E-07
  7.000E+00  3.72692E-03  9.10592E-16  3.25178E+01 -8.55619E-03  1.0E-07
  7.100E+00  3.83403E-03  9.04377E-16  3.22959E+01 -8.71678E-03  1.0E-07
  7.200E+00  3.94265E-03  8.98115E-16  3.20723E+01 -8.87918E-03  1.0E-07
  7.300E+00  4.05278E-03  8.91807E-16  3.18470E+01 -9.04344E-03  1.0E-07
  7.400E+00  4.16442E-03  8.85454E-16  3.16202E+01 -9.20960E-03  1.0E-07
  7.500E+00  4.27757E-03  8.79059E-16  3.13918E+01 -9.37769E-03  1.0E-07
  7.600E+00  4.39223E-03  8.72621E-16  3.11619E+01 -9.54776E-03  1.0E-07
  7.700E+00  4.50840E-03  8.66143E-16  3.09305E+01 -9.71985E-03  1.0E-07
  7.800E+00  4.62608E-03  8.59627E-16  3.06978E+01 -9.89401E-03  1.0E-07
  7.900E+00  4.74527E-03  8.53073E-16  3.04638E+01 -1.00703E-02  1.0E-07
  8.000E+00  4.86597E-03  8.46484E-16  3.02285E+01 -1.02487E-02  1.0E-07
  8.100E+00  4.98817E-03  8.39860E-16  2.99919E+01 -1.04293E-02  1.0E-07
  8.200E+00  5.11188E-03  8.33203E-16  2.97542E+01 -1.06122E-02  1.0E-07
  8.300E+00  5.23711E-03  8.26515E-16  2.95154E+01 -1.07973E-02  1.0E-07
  8.400E+00  5.36383E-03  8.19798E-16  2.92755E+01 -1.09848E-02  1.0E-07
  8.500E+00  5.49207E-03  8.13051E-16  2.90346E+01 -1.11747E-02  1.0E-07
  8.600E+00  5.62181E-03  8.06278E-16  2.87927E+01 -1.13670E-02  1.0E-07
  8.700E+00  5.75306E-03  7.99479E-16  2.85499E+01 -1.15618E-02  1.0E-07
  8.800E+00  5.88581E-03  7.92656E-16  2.83063E+01 -1.17592E-02  1.0E-07
  8.900E+00  6.02007E-03  7.85811E-16  2.80618E+01 -1.19591E-02  1.0E-07
  9.000E+00  6.15583E-03  7.78944E-16  2.78166E+01 -1.21617E-02  1.0E-07
  9.100E+00  6.29310E-03  7.72058E-16  2.75707E+01 -1.23670E-02  1.0E-07
  9.200E+00  6.43187E-03  7.65153E-16  2.73241E+01 -1.25751E-02  1.0E-07
  9.300E+00  6.57214E-03  7.58232E-16  2.70770E+01 -1.27860E-02  1.0E-07
  9.400E+00  6.71392E-03  7.51295E-16  2.68292E+01 -1.29997E-02  1.0E-07
  9.500E+00  6.85720E-03  7.44344E-16  2.65810E+01 -1.32164E-02  1.0E-07
  9.600E+00  7.00198E-03  7.37381E-16  2.63324E+01 -1.34361E-02  1.0E-07
  9.700E+00  7.14827E-03  7.30407E-16  2.60833E+01 -1.36589E-02  1.0E-07
  9.800E+00  7.29605E-03  7.23422E-16  2.58339E+01 -1.38847E-02  1.0E-07
  9.900E+00  7.44534E-03  7.16430E-16  2.55842E+01 -1.41138E-02  1.0E-07
  1.000E+01  7.59612E-03  7.09430E-16  2.53342E+01 -1.43461E-02  1.0E-07
  1.025E+01  7.97965E-03  6.91910E-16  2.47086E+01 -1.49415E-02  1.0E-07
  1.050E+01  8.37255E-03  6.74376E-16  2.40824E+01 -1.55587E-02  1.0E-07
  1.075E+01  8.77480E-03  6.56849E-16  2.34565E+01 -1.61989E-02  1.0E-07
  1.100E+01  9.18641E-03  6.39349E-16  2.28316E+01 -1.68633E-02  1.0E-07
  1.125E+01  9.60736E-03  6.21896E-16  2.22083E+01 -1.75531E-02  1.0E-07
  1.150E+01  1.00376E-02  6.04510E-16  2.15875E+01 -1.82697E-02  1.0E-07
  1.175E+01  1.04773E-02  5.87210E-16  2.09697E+01 -1.90144E-02  1.0E-07
  1.200E+01  1.09262E-02  5.70014E-16  2.03556E+01 -1.97888E-02  1.0E-07
  1.225E+01  1.13844E-02  5.52939E-16  1.97458E+01 -2.05944E-02  1.0E-07
  1.250E+01  1.18520E-02  5.36004E-16  1.91410E+01 -2.14328E-02  1.0E-07
  1.275E+01  1.23288E-02  5.19224E-16  1.85418E+01 -2.23058E-02  1.0E-07
  1.300E+01  1.28150E-02  5.02615E-16  1.79487E+01 -2.32152E-02  1.0E-07
  1.325E+01  1.33104E-02  4.86193E-16  1.73623E+01 -2.41629E-02  1.0E-07
  1.350E+01  1.38150E-02  4.69972E-16  1.67830E+01 -2.51510E-02  1.0E-07
  1.375E+01  1.43290E-02  4.53966E-16  1.62114E+01 -2.61816E-02  1.0E-07
  1.400E+01  1.48521E-02  4.38188E-16  1.56480E+01 -2.72570E-02  1.0E-07
  1.425E+01  1.53845E-02  4.22651E-16  1.50931E+01 -2.83795E-02  1.0E-07
  1.450E+01  1.59262E-02  4.07367E-16  1.45473E+01 -2.95517E-02  1.0E-07
  1.475E+01  1.64770E-02  3.92346E-16  1.40109E+01 -3.07761E-02  1.0E-07
