 #
 # Subroutine ELSEPA. Elastic scattering of electrons and positrons
 #                    by neutral atoms and positive ions
 #
 # Projectile: electron
 # Kinetic energy = 8.00000E+01 eV = 2.93995E+00 a.u.
 #
 #  ***  WARNING: Energy is too low.
 #                The reliability of the results is questionable.
 #
 # Element:  H,  Z =   1,  atomic weight = 1.00790E+00 g/mol
 #
 # Nuclear model: Fermi distribution
 #                Average radius = 1.07281E-13 cm
 #                Skin thickness = 5.46000E-14 cm
 #
 # Number of electrons =  1
 #
 # Electron density: analytical DHFS model
 #                   A1 = -7.05665D-06 ,   ALPHA1 = 4.92969D+00
 #                   A2 = -1.84386D+02 ,   ALPHA2 = 2.00272D+00
 #                   A3 =  1.85386D+02 ,   ALPHA3 = 1.99732D+00
 #                   Volume integral = 1.00000E+00
 #
 # Muffin-tin model: Rmt = 3.22000E-08 cm
 #
 # Furness-McCarthy exchange potential
 #
 # Total elastic cross section = 4.23519E-17 cm**2 = 1.51241E+00 a0**2
 # 1st transport cross section = 1.30070E-17 cm**2 = 4.64489E-01 a0**2
 # 2nd transport cross section = 2.35737E-17 cm**2 = 8.41833E-01 a0**2
 #
 #
 # Differential cross section:                       MU=(1-COS(THETA))/2
 #
 #  THETA        MU          DCS          DCS        Sherman      error
 #  (deg)                 (cm**2/sr)   (a0**2/sr)    function
 #----------------------------------------------------------------------
  0.000E+00  0.00000E+00  3.78389E-17  1.35125E+00  0.00000E+00  1.0E-07
  1.000E-04  7.61557E-13  3.78389E-17  1.35125E+00 -1.54150E-11  1.0E-07
  1.250E-04  1.18994E-12  3.78389E-17  1.35125E+00 -1.92688E-11  1.0E-07
  1.500E-04  1.71346E-12  3.78389E-17  1.35125E+00 -2.31225E-11  1.0E-07
  1.750E-04  2.33225E-12  3.78389E-17  1.35125E+00 -2.69763E-11  1.0E-07
  2.000E-04  3.04617E-12  3.78389E-17  1.35125E+00 -3.08301E-11  1.0E-07
  2.250E-04  3.85530E-12  3.78389E-17  1.35125E+00 -3.46838E-11  1.0E-07
  2.500E-04  4.75964E-12  3.78389E-17  1.35125E+00 -3.85376E-11  1.0E-07
  2.750E-04  5.75917E-12  3.78389E-17  1.35125E+00 -4.23913E-11  1.0E-07
  3.000E-04  6.85391E-12  3.78389E-17  1.35125E+00 -4.62451E-11  1.0E-07
  3.250E-04  8.04379E-12  3.78389E-17  1.35125E+00 -5.00988E-11  1.0E-07
  3.500E-04  9.32893E-12  3.78389E-17  1.35125E+00 -5.39526E-11  1.0E-07
  3.750E-04  1.07092E-11  3.78389E-17  1.35125E+00 -5.78064E-11  1.0E-07
  4.000E-04  1.21847E-11  3.78389E-17  1.35125E+00 -6.16601E-11  1.0E-07
  4.250E-04  1.37554E-11  3.78389E-17  1.35125E+00 -6.55139E-11  1.0E-07
  4.500E-04  1.54213E-11  3.78389E-17  1.35125E+00 -6.93676E-11  1.0E-07
  4.750E-04  1.71823E-11  3.78389E-17  1.35125E+00 -7.32214E-11  1.0E-07
  5.000E-04  1.90386E-11  3.78389E-17  1.35125E+00 -7.70751E-11  1.0E-07
  5.250E-04  2.09900E-11  3.78389E-17  1.35125E+00 -8.09289E-11  1.0E-07
  5.500E-04  2.30367E-11  3.78389E-17  1.35125E+00 -8.47826E-11  1.0E-07
  5.750E-04  2.51785E-11  3.78389E-17  1.35125E+00 -8.86364E-11  1.0E-07
  6.000E-04  2.74156E-11  3.78389E-17  1.35125E+00 -9.24902E-11  1.0E-07
  6.250E-04  2.97478E-11  3.78389E-17  1.35125E+00 -9.63439E-11  1.0E-07
  6.500E-04  3.21752E-11  3.78389E-17  1.35125E+00 -1.00198E-10  1.0E-07
  6.750E-04  3.46979E-11  3.78389E-17  1.35125E+00 -1.04051E-10  1.0E-07
  7.000E-04  3.73157E-11  3.78389E-17  1.35125E+00 -1.07905E-10  1.0E-07
  7.250E-04  4.00286E-11  3.78389E-17  1.35125E+00 -1.11759E-10  1.0E-07
  7.500E-04  4.28368E-11  3.78389E-17  1.35125E+00 -1.15613E-10  1.0E-07
  7.750E-04  4.57402E-11  3.78389E-17  1.35125E+00 -1.19466E-10  1.0E-07
  8.000E-04  4.87388E-11  3.78389E-17  1.35125E+00 -1.23320E-10  1.0E-07
  8.250E-04  5.18325E-11  3.78389E-17  1.35125E+00 -1.27174E-10  1.0E-07
  8.500E-04  5.50215E-11  3.78389E-17  1.35125E+00 -1.31028E-10  1.0E-07
  8.750E-04  5.83057E-11  3.78389E-17  1.35125E+00 -1.34881E-10  1.0E-07
  9.000E-04  6.16850E-11  3.78389E-17  1.35125E+00 -1.38735E-10  1.0E-07
  9.250E-04  6.51595E-11  3.78389E-17  1.35125E+00 -1.42589E-10  1.0E-07
  9.500E-04  6.87293E-11  3.78389E-17  1.35125E+00 -1.46443E-10  1.0E-07
  9.750E-04  7.23943E-11  3.78389E-17  1.35125E+00 -1.50297E-10  1.0E-07
  1.000E-03  7.61544E-11  3.78389E-17  1.35125E+00 -1.54150E-10  1.0E-07
  1.250E-03  1.18991E-10  3.78389E-17  1.35125E+00 -1.92688E-10  1.0E-07
  1.500E-03  1.71347E-10  3.78389E-17  1.35125E+00 -2.31225E-10  1.0E-07
  1.750E-03  2.33223E-10  3.78389E-17  1.35125E+00 -2.69763E-10  1.0E-07
  2.000E-03  3.04617E-10  3.78389E-17  1.35125E+00 -3.08301E-10  1.0E-07
  2.250E-03  3.85531E-10  3.78389E-17  1.35125E+00 -3.46838E-10  1.0E-07
  2.500E-03  4.75965E-10  3.78389E-17  1.35125E+00 -3.85376E-10  1.0E-07
  2.750E-03  5.75917E-10  3.78389E-17  1.35125E+00 -4.23913E-10  1.0E-07
  3.000E-03  6.85389E-10  3.78389E-17  1.35125E+00 -4.62451E-10  1.0E-07
  3.250E-03  8.04380E-10  3.78389E-17  1.35125E+00 -5.00988E-10  1.0E-07
  3.500E-03  9.32891E-10  3.78389E-17  1.35125E+00 -5.39526E-10  1.0E-07
  3.750E-03  1.07092E-09  3.78389E-17  1.35125E+00 -5.78064E-10  1.0E-07
  4.000E-03  1.21847E-09  3.78389E-17  1.35125E+00 -6.16601E-10  1.0E-07
  4.250E-03  1.37554E-09  3.78389E-17  1.35125E+00 -6.55139E-10  1.0E-07
  4.500E-03  1.54213E-09  3.78389E-17  1.35125E+00 -6.93676E-10  1.0E-07
  4.750E-03  1.71823E-09  3.78389E-17  1.35125E+00 -7.32214E-10  1.0E-07
  5.000E-03  1.90386E-09  3.78389E-17  1.35125E+00 -7.70751E-10  1.0E-07
  5.250E-03  2.09900E-09  3.78389E-17  1.35125E+00 -8.09289E-10  1.0E-07
  5.500E-03  2.30367E-09  3.78389E-17  1.35125E+00 -8.47827E-10  1.0E-07
  5.750E-03  2.51785E-09  3.78389E-17  1.35125E+00 -8.86364E-10  1.0E-07
  6.000E-03  2.74156E-09  3.78389E-17  1.35125E+00 -9.24902E-10  1.0E-07
  6.250E-03  2.97478E-09  3.78389E-17  1.35125E+00 -9.63439E-10  1.0E-07
  6.500E-03  3.21752E-09  3.78389E-17  1.35125E+00 -1.00198E-09  1.0E-07
  6.750E-03  3.46978E-09  3.78389E-17  1.35125E+00 -1.04051E-09  1.0E-07
  7.000E-03  3.73156E-09  3.78389E-17  1.35125E+00 -1.07905E-09  1.0E-07
  7.250E-03  4.00286E-09  3.78389E-17  1.35125E+00 -1.11759E-09  1.0E-07
  7.500E-03  4.28368E-09  3.78389E-17  1.35125E+00 -1.15613E-09  1.0E-07
  7.750E-03  4.57402E-09  3.78389E-17  1.35125E+00 -1.19466E-09  1.0E-07
  8.000E-03  4.87388E-09  3.78389E-17  1.35125E+00 -1.23320E-09  1.0E-07
  8.250E-03  5.18326E-09  3.78389E-17  1.35125E+00 -1.27174E-09  1.0E-07
  8.500E-03  5.50215E-09  3.78389E-17  1.35125E+00 -1.31028E-09  1.0E-07
  8.750E-03  5.83057E-09  3.78389E-17  1.35125E+00 -1.34881E-09  1.0E-07
  9.000E-03  6.16850E-09  3.78389E-17  1.35125E+00 -1.38735E-09  1.0E-07
  9.250E-03  6.51596E-09  3.78389E-17  1.35125E+00 -1.42589E-09  1.0E-07
  9.500E-03  6.87293E-09  3.78389E-17  1.35125E+00 -1.46443E-09  1.0E-07
  9.750E-03  7.23942E-09  3.78389E-17  1.35125E+00 -1.50297E-09  1.0E-07
  1.000E-02  7.61544E-09  3.78389E-17  1.35125E+00 -1.54150E-09  1.0E-07
  1.250E-02  1.18991E-08  3.78389E-17  1.35125E+00 -1.92688E-09  1.0E-07
  1.500E-02  1.71347E-08  3.78389E-17  1.35125E+00 -2.31225E-09  1.0E-07
  1.750E-02  2.33223E-08  3.78389E-17  1.35125E+00 -2.69763E-09  1.0E-07
  2.000E-02  3.04617E-08  3.78389E-17  1.35125E+00 -3.08301E-09  1.0E-07
  2.250E-02  3.85531E-08  3.78389E-17  1.35125E+00 -3.46838E-09  1.0E-07
  2.500E-02  4.75965E-08  3.78389E-17  1.35125E+00 -3.85376E-09  1.0E-07
  2.750E-02  5.75917E-08  3.78389E-17  1.35125E+00 -4.23913E-09  1.0E-07
  3.000E-02  6.85389E-08  3.78389E-17  1.35125E+00 -4.62451E-09  1.0E-07
  3.250E-02  8.04380E-08  3.78389E-17  1.35125E+00 -5.00989E-09  1.0E-07
  3.500E-02  9.32891E-08  3.78388E-17  1.35125E+00 -5.39526E-09  1.0E-07
  3.750E-02  1.07092E-07  3.78388E-17  1.35125E+00 -5.78064E-09  1.0E-07
  4.000E-02  1.21847E-07  3.78388E-17  1.35125E+00 -6.16602E-09  1.0E-07
  4.250E-02  1.37554E-07  3.78388E-17  1.35125E+00 -6.55140E-09  1.0E-07
  4.500E-02  1.54213E-07  3.78388E-17  1.35125E+00 -6.93677E-09  1.0E-07
  4.750E-02  1.71823E-07  3.78388E-17  1.35125E+00 -7.32215E-09  1.0E-07
  5.000E-02  1.90386E-07  3.78388E-17  1.35125E+00 -7.70753E-09  1.0E-07
  5.250E-02  2.09900E-07  3.78388E-17  1.35125E+00 -8.09291E-09  1.0E-07
  5.500E-02  2.30367E-07  3.78388E-17  1.35125E+00 -8.47828E-09  1.0E-07
  5.750E-02  2.51785E-07  3.78387E-17  1.35125E+00 -8.86366E-09  1.0E-07
  6.000E-02  2.74156E-07  3.78387E-17  1.35125E+00 -9.24904E-09  1.0E-07
  6.250E-02  2.97478E-07  3.78387E-17  1.35124E+00 -9.63442E-09  1.0E-07
  6.500E-02  3.21752E-07  3.78387E-17  1.35124E+00 -1.00198E-08  1.0E-07
  6.750E-02  3.46978E-07  3.78387E-17  1.35124E+00 -1.04052E-08  1.0E-07
  7.000E-02  3.73156E-07  3.78387E-17  1.35124E+00 -1.07906E-08  1.0E-07
  7.250E-02  4.00286E-07  3.78386E-17  1.35124E+00 -1.11759E-08  1.0E-07
  7.500E-02  4.28368E-07  3.78386E-17  1.35124E+00 -1.15613E-08  1.0E-07
  7.750E-02  4.57402E-07  3.78386E-17  1.35124E+00 -1.19467E-08  1.0E-07
  8.000E-02  4.87388E-07  3.78386E-17  1.35124E+00 -1.23321E-08  1.0E-07
  8.250E-02  5.18325E-07  3.78386E-17  1.35124E+00 -1.27175E-08  1.0E-07
  8.500E-02  5.50215E-07  3.78385E-17  1.35124E+00 -1.31028E-08  1.0E-07
  8.750E-02  5.83057E-07  3.78385E-17  1.35124E+00 -1.34882E-08  1.0E-07
  9.000E-02  6.16850E-07  3.78385E-17  1.35124E+00 -1.38736E-08  1.0E-07
  9.250E-02  6.51596E-07  3.78385E-17  1.35124E+00 -1.42590E-08  1.0E-07
  9.500E-02  6.87293E-07  3.78384E-17  1.35124E+00 -1.46444E-08  1.0E-07
  9.750E-02  7.23942E-07  3.78384E-17  1.35123E+00 -1.50298E-08  1.0E-07
  1.000E-01  7.61543E-07  3.78384E-17  1.35123E+00 -1.54151E-08  1.0E-07
  1.250E-01  1.18991E-06  3.78381E-17  1.35122E+00 -1.92690E-08  1.0E-07
  1.500E-01  1.71347E-06  3.78377E-17  1.35121E+00 -2.31229E-08  1.0E-07
  1.750E-01  2.33223E-06  3.78373E-17  1.35120E+00 -2.69769E-08  1.0E-07
  2.000E-01  3.04617E-06  3.78368E-17  1.35118E+00 -3.08310E-08  1.0E-07
  2.250E-01  3.85531E-06  3.78363E-17  1.35116E+00 -3.46851E-08  1.0E-07
  2.500E-01  4.75964E-06  3.78357E-17  1.35114E+00 -3.85393E-08  1.0E-07
  2.750E-01  5.75916E-06  3.78350E-17  1.35111E+00 -4.23937E-08  1.0E-07
  3.000E-01  6.85388E-06  3.78342E-17  1.35108E+00 -4.62481E-08  1.0E-07
  3.250E-01  8.04378E-06  3.78334E-17  1.35106E+00 -5.01027E-08  1.0E-07
  3.500E-01  9.32888E-06  3.78325E-17  1.35102E+00 -5.39574E-08  1.0E-07
  3.750E-01  1.07092E-05  3.78316E-17  1.35099E+00 -5.78123E-08  1.0E-07
  4.000E-01  1.21846E-05  3.78306E-17  1.35095E+00 -6.16673E-08  1.0E-07
  4.250E-01  1.37553E-05  3.78295E-17  1.35092E+00 -6.55225E-08  1.0E-07
  4.500E-01  1.54212E-05  3.78284E-17  1.35088E+00 -6.93779E-08  1.0E-07
  4.750E-01  1.71822E-05  3.78272E-17  1.35083E+00 -7.32335E-08  1.0E-07
  5.000E-01  1.90385E-05  3.78259E-17  1.35079E+00 -7.70893E-08  1.0E-07
  5.250E-01  2.09899E-05  3.78245E-17  1.35074E+00 -8.09453E-08  1.0E-07
  5.500E-01  2.30365E-05  3.78231E-17  1.35069E+00 -8.48015E-08  1.0E-07
  5.750E-01  2.51783E-05  3.78217E-17  1.35064E+00 -8.86579E-08  1.0E-07
  6.000E-01  2.74153E-05  3.78201E-17  1.35058E+00 -9.25146E-08  1.0E-07
  6.250E-01  2.97475E-05  3.78186E-17  1.35053E+00 -9.63715E-08  1.0E-07
  6.500E-01  3.21749E-05  3.78169E-17  1.35047E+00 -1.00229E-07  1.0E-07
  6.750E-01  3.46974E-05  3.78152E-17  1.35040E+00 -1.04086E-07  1.0E-07
  7.000E-01  3.73152E-05  3.78134E-17  1.35034E+00 -1.07944E-07  1.0E-07
  7.250E-01  4.00281E-05  3.78115E-17  1.35027E+00 -1.11802E-07  1.0E-07
  7.500E-01  4.28362E-05  3.78096E-17  1.35021E+00 -1.15660E-07  1.0E-07
  7.750E-01  4.57395E-05  3.78076E-17  1.35013E+00 -1.19519E-07  1.0E-07
  8.000E-01  4.87380E-05  3.78056E-17  1.35006E+00 -1.23378E-07  1.0E-07
  8.250E-01  5.18317E-05  3.78034E-17  1.34999E+00 -1.27237E-07  1.0E-07
  8.500E-01  5.50205E-05  3.78013E-17  1.34991E+00 -1.31097E-07  1.0E-07
  8.750E-01  5.83045E-05  3.77990E-17  1.34983E+00 -1.34957E-07  1.0E-07
  9.000E-01  6.16838E-05  3.77967E-17  1.34975E+00 -1.38818E-07  1.0E-07
  9.250E-01  6.51582E-05  3.77943E-17  1.34966E+00 -1.42679E-07  1.0E-07
  9.500E-01  6.87277E-05  3.77919E-17  1.34957E+00 -1.46540E-07  1.0E-07
  9.750E-01  7.23925E-05  3.77894E-17  1.34948E+00 -1.50401E-07  1.0E-07
  1.000E+00  7.61524E-05  3.77868E-17  1.34939E+00 -1.54263E-07  1.0E-07
  1.100E+00  9.21439E-05  3.77759E-17  1.34900E+00 -1.69716E-07  1.0E-07
  1.200E+00  1.09658E-04  3.77639E-17  1.34857E+00 -1.85176E-07  1.0E-07
  1.300E+00  1.28695E-04  3.77509E-17  1.34811E+00 -2.00644E-07  1.0E-07
  1.400E+00  1.49255E-04  3.77369E-17  1.34761E+00 -2.16121E-07  1.0E-07
  1.500E+00  1.71338E-04  3.77218E-17  1.34707E+00 -2.31607E-07  1.0E-07
  1.600E+00  1.94942E-04  3.77058E-17  1.34650E+00 -2.47104E-07  1.0E-07
  1.700E+00  2.20070E-04  3.76886E-17  1.34589E+00 -2.62611E-07  1.0E-07
  1.800E+00  2.46720E-04  3.76705E-17  1.34524E+00 -2.78130E-07  1.0E-07
  1.900E+00  2.74892E-04  3.76513E-17  1.34455E+00 -2.93662E-07  1.0E-07
  2.000E+00  3.04586E-04  3.76311E-17  1.34383E+00 -3.09206E-07  1.0E-07
  2.100E+00  3.35803E-04  3.76099E-17  1.34307E+00 -3.24764E-07  1.0E-07
  2.200E+00  3.68542E-04  3.75877E-17  1.34228E+00 -3.40336E-07  1.0E-07
  2.300E+00  4.02802E-04  3.75645E-17  1.34145E+00 -3.55923E-07  1.0E-07
  2.400E+00  4.38585E-04  3.75402E-17  1.34058E+00 -3.71525E-07  1.0E-07
  2.500E+00  4.75889E-04  3.75149E-17  1.33968E+00 -3.87144E-07  1.0E-07
  2.600E+00  5.14715E-04  3.74887E-17  1.33874E+00 -4.02780E-07  1.0E-07
  2.700E+00  5.55063E-04  3.74614E-17  1.33777E+00 -4.18434E-07  1.0E-07
  2.800E+00  5.96931E-04  3.74331E-17  1.33676E+00 -4.34106E-07  1.0E-07
  2.900E+00  6.40321E-04  3.74039E-17  1.33572E+00 -4.49797E-07  1.0E-07
  3.000E+00  6.85233E-04  3.73736E-17  1.33463E+00 -4.65508E-07  1.0E-07
  3.100E+00  7.31665E-04  3.73423E-17  1.33352E+00 -4.81239E-07  1.0E-07
  3.200E+00  7.79618E-04  3.73101E-17  1.33237E+00 -4.96992E-07  1.0E-07
  3.300E+00  8.29092E-04  3.72769E-17  1.33118E+00 -5.12766E-07  1.0E-07
  3.400E+00  8.80086E-04  3.72427E-17  1.32996E+00 -5.28563E-07  1.0E-07
  3.500E+00  9.32601E-04  3.72075E-17  1.32870E+00 -5.44383E-07  1.0E-07
  3.600E+00  9.86636E-04  3.71713E-17  1.32741E+00 -5.60226E-07  1.0E-07
  3.700E+00  1.04219E-03  3.71342E-17  1.32609E+00 -5.76095E-07  1.0E-07
  3.800E+00  1.09927E-03  3.70961E-17  1.32473E+00 -5.91988E-07  1.0E-07
  3.900E+00  1.15786E-03  3.70570E-17  1.32333E+00 -6.07908E-07  1.0E-07
  4.000E+00  1.21797E-03  3.70170E-17  1.32190E+00 -6.23854E-07  1.0E-07
  4.100E+00  1.27961E-03  3.69761E-17  1.32044E+00 -6.39828E-07  1.0E-07
  4.200E+00  1.34276E-03  3.69342E-17  1.31894E+00 -6.55829E-07  1.0E-07
  4.300E+00  1.40743E-03  3.68913E-17  1.31741E+00 -6.71859E-07  1.0E-07
  4.400E+00  1.47362E-03  3.68476E-17  1.31585E+00 -6.87919E-07  1.0E-07
  4.500E+00  1.54133E-03  3.68028E-17  1.31425E+00 -7.04009E-07  1.0E-07
  4.600E+00  1.61056E-03  3.67572E-17  1.31262E+00 -7.20129E-07  1.0E-07
  4.700E+00  1.68131E-03  3.67106E-17  1.31096E+00 -7.36281E-07  1.0E-07
  4.800E+00  1.75357E-03  3.66631E-17  1.30926E+00 -7.52466E-07  1.0E-07
  4.900E+00  1.82735E-03  3.66147E-17  1.30754E+00 -7.68683E-07  1.0E-07
  5.000E+00  1.90265E-03  3.65654E-17  1.30577E+00 -7.84933E-07  1.0E-07
  5.100E+00  1.97947E-03  3.65152E-17  1.30398E+00 -8.01218E-07  1.0E-07
  5.200E+00  2.05780E-03  3.64641E-17  1.30216E+00 -8.17538E-07  1.0E-07
  5.300E+00  2.13765E-03  3.64121E-17  1.30030E+00 -8.33894E-07  1.0E-07
  5.400E+00  2.21902E-03  3.63592E-17  1.29841E+00 -8.50286E-07  1.0E-07
  5.500E+00  2.30190E-03  3.63054E-17  1.29649E+00 -8.66715E-07  1.0E-07
  5.600E+00  2.38630E-03  3.62508E-17  1.29454E+00 -8.83182E-07  1.0E-07
  5.700E+00  2.47222E-03  3.61953E-17  1.29256E+00 -8.99687E-07  1.0E-07
  5.800E+00  2.55965E-03  3.61389E-17  1.29054E+00 -9.16232E-07  1.0E-07
  5.900E+00  2.64859E-03  3.60817E-17  1.28850E+00 -9.32817E-07  1.0E-07
  6.000E+00  2.73905E-03  3.60236E-17  1.28643E+00 -9.49442E-07  1.0E-07
  6.100E+00  2.83103E-03  3.59647E-17  1.28432E+00 -9.66108E-07  1.0E-07
  6.200E+00  2.92452E-03  3.59049E-17  1.28219E+00 -9.82816E-07  1.0E-07
  6.300E+00  3.01952E-03  3.58443E-17  1.28002E+00 -9.99568E-07  1.0E-07
  6.400E+00  3.11604E-03  3.57829E-17  1.27783E+00 -1.01636E-06  1.0E-07
  6.500E+00  3.21407E-03  3.57206E-17  1.27561E+00 -1.03320E-06  1.0E-07
  6.600E+00  3.31362E-03  3.56576E-17  1.27336E+00 -1.05008E-06  1.0E-07
  6.700E+00  3.41468E-03  3.55937E-17  1.27107E+00 -1.06701E-06  1.0E-07
  6.800E+00  3.51725E-03  3.55290E-17  1.26877E+00 -1.08399E-06  1.0E-07
  6.900E+00  3.62133E-03  3.54636E-17  1.26643E+00 -1.10101E-06  1.0E-07
  7.000E+00  3.72692E-03  3.53973E-17  1.26406E+00 -1.11808E-06  1.0E-07
  7.100E+00  3.83403E-03  3.53303E-17  1.26167E+00 -1.13520E-06  1.0E-07
  7.200E+00  3.94265E-03  3.52625E-17  1.25925E+00 -1.15237E-06  1.0E-07
  7.300E+00  4.05278E-03  3.51939E-17  1.25680E+00 -1.16959E-06  1.0E-07
  7.400E+00  4.16442E-03  3.51246E-17  1.25432E+00 -1.18685E-06  1.0E-07
  7.500E+00  4.27757E-03  3.50545E-17  1.25182E+00 -1.20417E-06  1.0E-07
  7.600E+00  4.39223E-03  3.49837E-17  1.24929E+00 -1.22155E-06  1.0E-07
  7.700E+00  4.50840E-03  3.49122E-17  1.24674E+00 -1.23897E-06  1.0E-07
  7.800E+00  4.62608E-03  3.48399E-17  1.24415E+00 -1.25645E-06  1.0E-07
  7.900E+00  4.74527E-03  3.47669E-17  1.24155E+00 -1.27398E-06  1.0E-07
  8.000E+00  4.86597E-03  3.46931E-17  1.23891E+00 -1.29157E-06  1.0E-07
  8.100E+00  4.98817E-03  3.46187E-17  1.23626E+00 -1.30921E-06  1.0E-07
  8.200E+00  5.11188E-03  3.45435E-17  1.23357E+00 -1.32691E-06  1.0E-07
  8.300E+00  5.23711E-03  3.44677E-17  1.23086E+00 -1.34467E-06  1.0E-07
  8.400E+00  5.36383E-03  3.43912E-17  1.22813E+00 -1.36248E-06  1.0E-07
  8.500E+00  5.49207E-03  3.43140E-17  1.22537E+00 -1.38035E-06  1.0E-07
  8.600E+00  5.62181E-03  3.42361E-17  1.22259E+00 -1.39828E-06  1.0E-07
  8.700E+00  5.75306E-03  3.41576E-17  1.21979E+00 -1.41628E-06  1.0E-07
  8.800E+00  5.88581E-03  3.40784E-17  1.21696E+00 -1.43433E-06  1.0E-07
  8.900E+00  6.02007E-03  3.39985E-17  1.21411E+00 -1.45244E-06  1.0E-07
  9.000E+00  6.15583E-03  3.39181E-17  1.21124E+00 -1.47062E-06  1.0E-07
  9.100E+00  6.29310E-03  3.38369E-17  1.20834E+00 -1.48886E-06  1.0E-07
  9.200E+00  6.43187E-03  3.37552E-17  1.20542E+00 -1.50716E-06  1.0E-07
  9.300E+00  6.57214E-03  3.36729E-17  1.20248E+00 -1.52553E-06  1.0E-07
  9.400E+00  6.71392E-03  3.35899E-17  1.19952E+00 -1.54397E-06  1.0E-07
  9.500E+00  6.85720E-03  3.35063E-17  1.19653E+00 -1.56246E-06  1.0E-07
  9.600E+00  7.00198E-03  3.34222E-17  1.19353E+00 -1.58103E-06  1.0E-07
  9.700E+00  7.14827E-03  3.33374E-17  1.19050E+00 -1.59966E-06  1.0E-07
  9.800E+00  7.29605E-03  3.32521E-17  1.18745E+00 -1.61836E-06  1.0E-07
  9.900E+00  7.44534E-03  3.31662E-17  1.18439E+00 -1.63713E-06  1.0E-07
  1.000E+01  7.59612E-03  3.30797E-17  1.18130E+00 -1.65597E-06  1.0E-07
  1.025E+01  7.97965E-03  3.28612E-17  1.17349E+00 -1.70338E-06  1.0E-07
  1.050E+01  8.37255E-03  3.26393E-17  1.16557E+00 -1.75125E-06  1.0E-07
  1.075E+01  8.77480E-03  3.24142E-17  1.15753E+00 -1.79957E-06  1.0E-07
  1.100E+01  9.18641E-03  3.21861E-17  1.14938E+00 -1.84837E-06  1.0E-07
  1.125E+01  9.60736E-03  3.19549E-17  1.14113E+00 -1.89766E-06  1.0E-07
  1.150E+01  1.00376E-02  3.17210E-17  1.13278E+00 -1.94745E-06  1.0E-07
  1.175E+01  1.04773E-02  3.14843E-17  1.12433E+00 -1.99775E-06  1.0E-07
  1.200E+01  1.09262E-02  3.12451E-17  1.11578E+00 -2.04857E-06  1.0E-07
  1.225E+01  1.13844E-02  3.10034E-17  1.10715E+00 -2.09993E-06  1.0E-07
  1.250E+01  1.18520E-02  3.07595E-17  1.09844E+00 -2.15184E-06  1.0E-07
  1.275E+01  1.23288E-02  3.05133E-17  1.08965E+00 -2.20430E-06  1.0E-07
  1.300E+01  1.28150E-02  3.02650E-17  1.08078E+00 -2.25734E-06  1.0E-07
  1.325E+01  1.33104E-02  3.00149E-17  1.07185E+00 -2.31096E-06  1.0E-07
  1.350E+01  1.38150E-02  2.97629E-17  1.06285E+00 -2.36518E-06  1.0E-07
  1.375E+01  1.43290E-02  2.95092E-17  1.05379E+00 -2.42001E-06  1.0E-07
  1.400E+01  1.48521E-02  2.92539E-17  1.04468E+00 -2.47545E-06  1.0E-07
  1.425E+01  1.53845E-02  2.89972E-17  1.03551E+00 -2.53153E-06  1.0E-07
  1.450E+01  1.59262E-02  2.87392E-17  1.02629E+00 -2.58826E-06  1.0E-07
