 #
 # Subroutine ELSEPA. Elastic scattering of electrons and positrons
 #                    by neutral atoms and positive ions
 #
 # Projectile: electron
 # Kinetic energy = 4.50000E+03 eV = 1.65372E+02 a.u.
 #
 # Element: Si,  Z =  14,  atomic weight = 2.80855E+01 g/mol
 #
 # Nuclear model: Fermi distribution
 #                Average radius = 3.25245E-13 cm
 #                Skin thickness = 5.46000E-14 cm
 #
 # Number of electrons = 14
 #
 # Electron density: Read from file z_014.den   
 #                   Number of data points =  761
 #                   Volume integral = 1.40000E+01
 #
 # Furness-McCarthy exchange potential
 #
 # Correlation-polarization potential (Buckingham):
 #                           Alpha = 5.38000E-24 cm**3
 #                            Bpol = 1.66771E+01
 #
 # Total elastic cross section = 4.40692E-17 cm**2 = 1.57374E+00 a0**2
 # 1st transport cross section = 1.22236E-18 cm**2 = 4.36512E-02 a0**2
 # 2nd transport cross section = 2.67573E-18 cm**2 = 9.55520E-02 a0**2
 #
 #
 # Differential cross section:                       MU=(1-COS(THETA))/2
 #
 #  THETA        MU          DCS          DCS        Sherman      error
 #  (deg)                 (cm**2/sr)   (a0**2/sr)    function
 #----------------------------------------------------------------------
  0.000E+00  0.00000E+00  5.45862E-15  1.94931E+02  0.00000E+00  3.7E-04
  1.000E-04  7.61557E-13  5.45862E-15  1.94931E+02  2.25440E-10  3.7E-04
  1.250E-04  1.18994E-12  5.45862E-15  1.94931E+02  2.81800E-10  3.7E-04
  1.500E-04  1.71346E-12  5.45862E-15  1.94931E+02  3.38161E-10  3.7E-04
  1.750E-04  2.33225E-12  5.45862E-15  1.94931E+02  3.94521E-10  3.7E-04
  2.000E-04  3.04617E-12  5.45862E-15  1.94931E+02  4.50881E-10  3.7E-04
  2.250E-04  3.85530E-12  5.45862E-15  1.94931E+02  5.07241E-10  3.7E-04
  2.500E-04  4.75964E-12  5.45862E-15  1.94931E+02  5.63601E-10  3.7E-04
  2.750E-04  5.75917E-12  5.45862E-15  1.94931E+02  6.19961E-10  3.7E-04
  3.000E-04  6.85391E-12  5.45862E-15  1.94931E+02  6.76321E-10  3.7E-04
  3.250E-04  8.04379E-12  5.45862E-15  1.94931E+02  7.32681E-10  3.7E-04
  3.500E-04  9.32893E-12  5.45862E-15  1.94931E+02  7.89041E-10  3.7E-04
  3.750E-04  1.07092E-11  5.45862E-15  1.94931E+02  8.45401E-10  3.7E-04
  4.000E-04  1.21847E-11  5.45862E-15  1.94931E+02  9.01761E-10  3.7E-04
  4.250E-04  1.37554E-11  5.45862E-15  1.94931E+02  9.58121E-10  3.7E-04
  4.500E-04  1.54213E-11  5.45862E-15  1.94931E+02  1.01448E-09  3.7E-04
  4.750E-04  1.71823E-11  5.45862E-15  1.94931E+02  1.07084E-09  3.7E-04
  5.000E-04  1.90386E-11  5.45862E-15  1.94931E+02  1.12720E-09  3.7E-04
  5.250E-04  2.09900E-11  5.45862E-15  1.94931E+02  1.18356E-09  3.7E-04
  5.500E-04  2.30367E-11  5.45862E-15  1.94931E+02  1.23992E-09  3.7E-04
  5.750E-04  2.51785E-11  5.45862E-15  1.94931E+02  1.29628E-09  3.7E-04
  6.000E-04  2.74156E-11  5.45862E-15  1.94931E+02  1.35264E-09  3.7E-04
  6.250E-04  2.97478E-11  5.45861E-15  1.94931E+02  1.40900E-09  3.7E-04
  6.500E-04  3.21752E-11  5.45861E-15  1.94931E+02  1.46536E-09  3.7E-04
  6.750E-04  3.46979E-11  5.45861E-15  1.94931E+02  1.52172E-09  3.7E-04
  7.000E-04  3.73157E-11  5.45861E-15  1.94931E+02  1.57808E-09  3.7E-04
  7.250E-04  4.00286E-11  5.45861E-15  1.94931E+02  1.63444E-09  3.7E-04
  7.500E-04  4.28368E-11  5.45861E-15  1.94931E+02  1.69080E-09  3.7E-04
  7.750E-04  4.57402E-11  5.45861E-15  1.94931E+02  1.74716E-09  3.7E-04
  8.000E-04  4.87388E-11  5.45861E-15  1.94930E+02  1.80352E-09  3.7E-04
  8.250E-04  5.18325E-11  5.45861E-15  1.94930E+02  1.85988E-09  3.7E-04
  8.500E-04  5.50215E-11  5.45861E-15  1.94930E+02  1.91624E-09  3.7E-04
  8.750E-04  5.83057E-11  5.45861E-15  1.94930E+02  1.97260E-09  3.7E-04
  9.000E-04  6.16850E-11  5.45861E-15  1.94930E+02  2.02896E-09  3.7E-04
  9.250E-04  6.51595E-11  5.45860E-15  1.94930E+02  2.08532E-09  3.7E-04
  9.500E-04  6.87293E-11  5.45860E-15  1.94930E+02  2.14168E-09  3.7E-04
  9.750E-04  7.23943E-11  5.45860E-15  1.94930E+02  2.19804E-09  3.7E-04
  1.000E-03  7.61544E-11  5.45860E-15  1.94930E+02  2.25440E-09  3.7E-04
  1.250E-03  1.18991E-10  5.45859E-15  1.94930E+02  2.81799E-09  3.7E-04
  1.500E-03  1.71347E-10  5.45858E-15  1.94929E+02  3.38158E-09  3.7E-04
  1.750E-03  2.33223E-10  5.45856E-15  1.94929E+02  3.94517E-09  3.7E-04
  2.000E-03  3.04617E-10  5.45854E-15  1.94928E+02  4.50875E-09  3.7E-04
  2.250E-03  3.85531E-10  5.45852E-15  1.94927E+02  5.07232E-09  3.7E-04
  2.500E-03  4.75965E-10  5.45849E-15  1.94926E+02  5.63589E-09  3.7E-04
  2.750E-03  5.75917E-10  5.45846E-15  1.94925E+02  6.19945E-09  3.7E-04
  3.000E-03  6.85389E-10  5.45843E-15  1.94924E+02  6.76301E-09  3.7E-04
  3.250E-03  8.04380E-10  5.45840E-15  1.94923E+02  7.32655E-09  3.7E-04
  3.500E-03  9.32891E-10  5.45836E-15  1.94922E+02  7.89009E-09  3.7E-04
  3.750E-03  1.07092E-09  5.45832E-15  1.94920E+02  8.45362E-09  3.7E-04
  4.000E-03  1.21847E-09  5.45828E-15  1.94919E+02  9.01713E-09  3.7E-04
  4.250E-03  1.37554E-09  5.45824E-15  1.94917E+02  9.58064E-09  3.7E-04
  4.500E-03  1.54213E-09  5.45819E-15  1.94916E+02  1.01441E-08  3.7E-04
  4.750E-03  1.71823E-09  5.45814E-15  1.94914E+02  1.07076E-08  3.7E-04
  5.000E-03  1.90386E-09  5.45809E-15  1.94912E+02  1.12711E-08  3.7E-04
  5.250E-03  2.09900E-09  5.45803E-15  1.94910E+02  1.18345E-08  3.7E-04
  5.500E-03  2.30367E-09  5.45798E-15  1.94908E+02  1.23980E-08  3.7E-04
  5.750E-03  2.51785E-09  5.45792E-15  1.94906E+02  1.29614E-08  3.7E-04
  6.000E-03  2.74156E-09  5.45786E-15  1.94904E+02  1.35248E-08  3.7E-04
  6.250E-03  2.97478E-09  5.45779E-15  1.94901E+02  1.40882E-08  3.7E-04
  6.500E-03  3.21752E-09  5.45772E-15  1.94899E+02  1.46516E-08  3.7E-04
  6.750E-03  3.46978E-09  5.45765E-15  1.94896E+02  1.52149E-08  3.7E-04
  7.000E-03  3.73156E-09  5.45758E-15  1.94894E+02  1.57782E-08  3.7E-04
  7.250E-03  4.00286E-09  5.45750E-15  1.94891E+02  1.63416E-08  3.7E-04
  7.500E-03  4.28368E-09  5.45742E-15  1.94888E+02  1.69049E-08  3.7E-04
  7.750E-03  4.57402E-09  5.45734E-15  1.94885E+02  1.74681E-08  3.7E-04
  8.000E-03  4.87388E-09  5.45726E-15  1.94882E+02  1.80314E-08  3.7E-04
  8.250E-03  5.18326E-09  5.45717E-15  1.94879E+02  1.85946E-08  3.7E-04
  8.500E-03  5.50215E-09  5.45708E-15  1.94876E+02  1.91578E-08  3.7E-04
  8.750E-03  5.83057E-09  5.45699E-15  1.94873E+02  1.97210E-08  3.7E-04
  9.000E-03  6.16850E-09  5.45690E-15  1.94869E+02  2.02842E-08  3.7E-04
  9.250E-03  6.51596E-09  5.45680E-15  1.94866E+02  2.08473E-08  3.7E-04
  9.500E-03  6.87293E-09  5.45670E-15  1.94862E+02  2.14104E-08  3.7E-04
  9.750E-03  7.23942E-09  5.45660E-15  1.94859E+02  2.19735E-08  3.7E-04
  1.000E-02  7.61544E-09  5.45649E-15  1.94855E+02  2.25365E-08  3.7E-04
  1.250E-02  1.18991E-08  5.45529E-15  1.94812E+02  2.81654E-08  3.7E-04
  1.500E-02  1.71347E-08  5.45383E-15  1.94760E+02  3.37907E-08  3.6E-04
  1.750E-02  2.33223E-08  5.45210E-15  1.94698E+02  3.94119E-08  3.6E-04
  2.000E-02  3.04617E-08  5.45011E-15  1.94627E+02  4.50281E-08  3.6E-04
  2.250E-02  3.85531E-08  5.44786E-15  1.94547E+02  5.06388E-08  3.6E-04
  2.500E-02  4.75965E-08  5.44535E-15  1.94457E+02  5.62433E-08  3.5E-04
  2.750E-02  5.75917E-08  5.44258E-15  1.94358E+02  6.18408E-08  3.5E-04
  3.000E-02  6.85389E-08  5.43955E-15  1.94250E+02  6.74308E-08  3.4E-04
  3.250E-02  8.04380E-08  5.43627E-15  1.94133E+02  7.30126E-08  3.4E-04
  3.500E-02  9.32891E-08  5.43273E-15  1.94006E+02  7.85856E-08  3.4E-04
  3.750E-02  1.07092E-07  5.42894E-15  1.93871E+02  8.41491E-08  3.3E-04
  4.000E-02  1.21847E-07  5.42490E-15  1.93727E+02  8.97025E-08  3.2E-04
  4.250E-02  1.37554E-07  5.42061E-15  1.93574E+02  9.52453E-08  3.2E-04
  4.500E-02  1.54213E-07  5.41608E-15  1.93412E+02  1.00777E-07  3.1E-04
  4.750E-02  1.71823E-07  5.41131E-15  1.93241E+02  1.06296E-07  3.1E-04
  5.000E-02  1.90386E-07  5.40630E-15  1.93062E+02  1.11804E-07  3.0E-04
  5.250E-02  2.09900E-07  5.40105E-15  1.92875E+02  1.17298E-07  2.9E-04
  5.500E-02  2.30367E-07  5.39557E-15  1.92679E+02  1.22779E-07  2.9E-04
  5.750E-02  2.51785E-07  5.38986E-15  1.92475E+02  1.28247E-07  2.8E-04
  6.000E-02  2.74156E-07  5.38392E-15  1.92263E+02  1.33699E-07  2.7E-04
  6.250E-02  2.97478E-07  5.37775E-15  1.92043E+02  1.39137E-07  2.6E-04
  6.500E-02  3.21752E-07  5.37137E-15  1.91815E+02  1.44560E-07  2.6E-04
  6.750E-02  3.46978E-07  5.36477E-15  1.91579E+02  1.49967E-07  2.5E-04
  7.000E-02  3.73156E-07  5.35796E-15  1.91336E+02  1.55358E-07  2.4E-04
  7.250E-02  4.00286E-07  5.35093E-15  1.91085E+02  1.60732E-07  2.3E-04
  7.500E-02  4.28368E-07  5.34370E-15  1.90827E+02  1.66090E-07  2.2E-04
  7.750E-02  4.57402E-07  5.33627E-15  1.90562E+02  1.71431E-07  2.1E-04
  8.000E-02  4.87388E-07  5.32864E-15  1.90289E+02  1.76754E-07  2.0E-04
  8.250E-02  5.18325E-07  5.32082E-15  1.90010E+02  1.82059E-07  1.9E-04
  8.500E-02  5.50215E-07  5.31281E-15  1.89724E+02  1.87347E-07  1.8E-04
  8.750E-02  5.83057E-07  5.30461E-15  1.89431E+02  1.92617E-07  1.7E-04
  9.000E-02  6.16850E-07  5.29624E-15  1.89132E+02  1.97868E-07  1.7E-04
  9.250E-02  6.51596E-07  5.28768E-15  1.88827E+02  2.03101E-07  1.6E-04
  9.500E-02  6.87293E-07  5.27895E-15  1.88515E+02  2.08315E-07  1.5E-04
  9.750E-02  7.23942E-07  5.27006E-15  1.88197E+02  2.13510E-07  1.4E-04
  1.000E-01  7.61543E-07  5.26100E-15  1.87874E+02  2.18687E-07  1.3E-04
  1.250E-01  1.18991E-06  5.16249E-15  1.84356E+02  2.69431E-07  2.9E-05
  1.500E-01  1.71347E-06  5.05289E-15  1.80442E+02  3.18460E-07  5.7E-05
  1.750E-01  2.33223E-06  4.93691E-15  1.76300E+02  3.66228E-07  1.2E-04
  2.000E-01  3.04617E-06  4.81887E-15  1.72085E+02  4.13476E-07  1.6E-04
  2.250E-01  3.85531E-06  4.70241E-15  1.67926E+02  4.61138E-07  1.6E-04
  2.500E-01  4.75964E-06  4.59032E-15  1.63923E+02  5.10216E-07  1.3E-04
  2.750E-01  5.75916E-06  4.48446E-15  1.60143E+02  5.61615E-07  7.6E-05
  3.000E-01  6.85388E-06  4.38580E-15  1.56620E+02  6.15996E-07  1.3E-05
  3.250E-01  8.04378E-06  4.29451E-15  1.53360E+02  6.73657E-07  4.8E-05
  3.500E-01  9.32888E-06  4.21019E-15  1.50349E+02  7.34483E-07  9.7E-05
  3.750E-01  1.07092E-05  4.13201E-15  1.47557E+02  7.97984E-07  1.2E-04
  4.000E-01  1.21846E-05  4.05893E-15  1.44947E+02  8.63383E-07  1.3E-04
  4.250E-01  1.37553E-05  3.98990E-15  1.42482E+02  9.29768E-07  1.0E-04
  4.500E-01  1.54212E-05  3.92397E-15  1.40128E+02  9.96255E-07  6.0E-05
  4.750E-01  1.71822E-05  3.86042E-15  1.37858E+02  1.06214E-06  7.2E-06
  5.000E-01  1.90385E-05  3.79876E-15  1.35656E+02  1.12699E-06  4.5E-05
  5.250E-01  2.09899E-05  3.73876E-15  1.33514E+02  1.19074E-06  8.7E-05
  5.500E-01  2.30365E-05  3.68041E-15  1.31430E+02  1.25365E-06  1.1E-04
  5.750E-01  2.51783E-05  3.62383E-15  1.29409E+02  1.31623E-06  1.1E-04
  6.000E-01  2.74153E-05  3.56919E-15  1.27458E+02  1.37918E-06  8.9E-05
  6.250E-01  2.97475E-05  3.51666E-15  1.25582E+02  1.44318E-06  5.1E-05
  6.500E-01  3.21749E-05  3.46636E-15  1.23786E+02  1.50882E-06  3.5E-06
  6.750E-01  3.46974E-05  3.41827E-15  1.22069E+02  1.57645E-06  4.4E-05
  7.000E-01  3.73152E-05  3.37231E-15  1.20427E+02  1.64614E-06  8.1E-05
  7.250E-01  4.00281E-05  3.32828E-15  1.18855E+02  1.71767E-06  1.0E-04
  7.500E-01  4.28362E-05  3.28590E-15  1.17342E+02  1.79057E-06  1.0E-04
  7.750E-01  4.57395E-05  3.24491E-15  1.15878E+02  1.86425E-06  8.1E-05
  8.000E-01  4.87380E-05  3.20504E-15  1.14454E+02  1.93810E-06  4.5E-05
  8.250E-01  5.18317E-05  3.16605E-15  1.13062E+02  2.01162E-06  5.4E-07
  8.500E-01  5.50205E-05  3.12781E-15  1.11696E+02  2.08450E-06  4.3E-05
  8.750E-01  5.83045E-05  3.09023E-15  1.10354E+02  2.15670E-06  7.7E-05
  9.000E-01  6.16838E-05  3.05330E-15  1.09035E+02  2.22843E-06  9.5E-05
  9.250E-01  6.51582E-05  3.01705E-15  1.07741E+02  2.30010E-06  9.4E-05
  9.500E-01  6.87277E-05  2.98156E-15  1.06473E+02  2.37224E-06  7.4E-05
  9.750E-01  7.23925E-05  2.94688E-15  1.05235E+02  2.44540E-06  4.0E-05
  1.000E+00  7.61524E-05  2.91304E-15  1.04027E+02  2.52003E-06  1.9E-06
  1.100E+00  9.21439E-05  2.78558E-15  9.94750E+01  2.83505E-06  8.9E-05
  1.200E+00  1.09658E-04  2.66638E-15  9.52182E+01  3.16146E-06  4.3E-05
  1.300E+00  1.28695E-04  2.55155E-15  9.11176E+01  3.48646E-06  6.5E-05
  1.400E+00  1.49255E-04  2.44213E-15  8.72101E+01  3.82898E-06  7.2E-05
  1.500E+00  1.71338E-04  2.33770E-15  8.34806E+01  4.19346E-06  3.0E-05
  1.600E+00  1.94942E-04  2.23583E-15  7.98430E+01  4.56203E-06  8.4E-05
  1.700E+00  2.20070E-04  2.13664E-15  7.63008E+01  4.94174E-06  1.0E-05
  1.800E+00  2.46720E-04  2.04100E-15  7.28854E+01  5.34839E-06  7.8E-05
  1.900E+00  2.74892E-04  1.94792E-15  6.95613E+01  5.76951E-06  4.6E-05
  2.000E+00  3.04586E-04  1.85692E-15  6.63116E+01  6.19856E-06  5.5E-05
  2.100E+00  3.35803E-04  1.76888E-15  6.31678E+01  6.65353E-06  7.2E-05
  2.200E+00  3.68542E-04  1.68377E-15  6.01285E+01  7.13393E-06  2.1E-05
  2.300E+00  4.02802E-04  1.60100E-15  5.71727E+01  7.62456E-06  8.2E-05
  2.400E+00  4.38585E-04  1.52099E-15  5.43156E+01  8.13621E-06  1.8E-05
  2.500E+00  4.75889E-04  1.44415E-15  5.15715E+01  8.68077E-06  7.3E-05
  2.600E+00  5.14715E-04  1.37006E-15  4.89258E+01  9.24327E-06  5.3E-05
  2.700E+00  5.55063E-04  1.29870E-15  4.63775E+01  9.82180E-06  4.9E-05
  2.800E+00  5.96931E-04  1.23048E-15  4.39412E+01  1.04347E-05  7.6E-05
  2.900E+00  6.40321E-04  1.16525E-15  4.16118E+01  1.10762E-05  1.3E-05
  3.000E+00  6.85233E-04  1.10275E-15  3.93799E+01  1.17325E-05  8.4E-05
  3.100E+00  7.31665E-04  1.04319E-15  3.72531E+01  1.24188E-05  2.6E-05
  3.200E+00  7.79618E-04  9.86630E-16  3.52332E+01  1.31428E-05  7.2E-05
  3.300E+00  8.29092E-04  9.32758E-16  3.33094E+01  1.38863E-05  6.1E-05
  3.400E+00  8.80086E-04  8.81554E-16  3.14809E+01  1.46525E-05  4.5E-05
  3.500E+00  9.32601E-04  8.33124E-16  2.97514E+01  1.54600E-05  8.3E-05
  3.600E+00  9.86636E-04  7.87261E-16  2.81136E+01  1.62967E-05  5.6E-06
  3.700E+00  1.04219E-03  7.43785E-16  2.65611E+01  1.71507E-05  8.8E-05
  3.800E+00  1.09927E-03  7.02752E-16  2.50957E+01  1.80421E-05  3.6E-05
  3.900E+00  1.15786E-03  6.64070E-16  2.37144E+01  1.89732E-05  7.2E-05
  4.000E+00  1.21797E-03  6.27513E-16  2.24089E+01  1.99221E-05  7.1E-05
  4.100E+00  1.27961E-03  5.93038E-16  2.11778E+01  2.08989E-05  4.0E-05
  4.200E+00  1.34276E-03  5.60627E-16  2.00204E+01  2.19214E-05  9.2E-05
  4.300E+00  1.40743E-03  5.30092E-16  1.89299E+01  2.29694E-05  3.0E-06
  4.400E+00  1.47362E-03  5.01310E-16  1.79021E+01  2.40350E-05  9.2E-05
  4.500E+00  1.54133E-03  4.74276E-16  1.69367E+01  2.51436E-05  4.7E-05
  4.600E+00  1.61056E-03  4.48874E-16  1.60296E+01  2.62893E-05  7.2E-05
  4.700E+00  1.68131E-03  4.24950E-16  1.51753E+01  2.74480E-05  8.2E-05
  4.800E+00  1.75357E-03  4.02469E-16  1.43724E+01  2.86384E-05  3.4E-05
  4.900E+00  1.82735E-03  3.81377E-16  1.36192E+01  2.98748E-05  1.0E-04
  5.000E+00  1.90265E-03  3.61536E-16  1.29107E+01  3.11288E-05  1.3E-05
  5.100E+00  1.97947E-03  3.42872E-16  1.22442E+01  3.23995E-05  9.5E-05
  5.200E+00  2.05780E-03  3.25363E-16  1.16189E+01  3.37162E-05  5.8E-05
  5.300E+00  2.13765E-03  3.08914E-16  1.10315E+01  3.50624E-05  6.9E-05
  5.400E+00  2.21902E-03  2.93428E-16  1.04785E+01  3.64148E-05  9.2E-05
  5.500E+00  2.30190E-03  2.78882E-16  9.95905E+00  3.78019E-05  2.7E-05
  5.600E+00  2.38630E-03  2.65225E-16  9.47137E+00  3.92312E-05  1.1E-04
  5.700E+00  2.47222E-03  2.52366E-16  9.01215E+00  4.06667E-05  2.3E-05
  5.800E+00  2.55965E-03  2.40263E-16  8.57997E+00  4.21183E-05  9.7E-05
  5.900E+00  2.64859E-03  2.28897E-16  8.17405E+00  4.36167E-05  7.0E-05
  6.000E+00  2.73905E-03  2.18196E-16  7.79190E+00  4.51328E-05  6.5E-05
  6.100E+00  2.83103E-03  2.08105E-16  7.43157E+00  4.66484E-05  1.0E-04
  6.200E+00  2.92452E-03  1.98613E-16  7.09260E+00  4.82019E-05  1.8E-05
  6.300E+00  3.01952E-03  1.89678E-16  6.77351E+00  4.97897E-05  1.1E-04
  6.400E+00  3.11604E-03  1.81242E-16  6.47225E+00  5.13714E-05  3.4E-05
  6.500E+00  3.21407E-03  1.73286E-16  6.18815E+00  5.29709E-05  9.6E-05
  6.600E+00  3.31362E-03  1.65793E-16  5.92056E+00  5.46156E-05  8.0E-05
  6.700E+00  3.41468E-03  1.58714E-16  5.66778E+00  5.62639E-05  5.9E-05
  6.800E+00  3.51725E-03  1.52021E-16  5.42877E+00  5.79076E-05  1.1E-04
  6.900E+00  3.62133E-03  1.45707E-16  5.20328E+00  5.95930E-05  8.4E-06
  7.000E+00  3.72692E-03  1.39740E-16  4.99021E+00  6.13019E-05  1.1E-04
  7.100E+00  3.83403E-03  1.34087E-16  4.78834E+00  6.29940E-05  4.5E-05
  7.200E+00  3.94265E-03  1.28740E-16  4.59738E+00  6.47086E-05  9.3E-05
  7.300E+00  4.05278E-03  1.23684E-16  4.41683E+00  6.64648E-05  8.8E-05
  7.400E+00  4.16442E-03  1.18888E-16  4.24557E+00  6.82099E-05  5.1E-05
  7.500E+00  4.27757E-03  1.14338E-16  4.08310E+00  6.99510E-05  1.1E-04
  7.600E+00  4.39223E-03  1.10030E-16  3.92925E+00  7.17379E-05  1.6E-06
  7.700E+00  4.50840E-03  1.05941E-16  3.78323E+00  7.35350E-05  1.1E-04
  7.800E+00  4.62608E-03  1.02052E-16  3.64434E+00  7.53084E-05  5.4E-05
  7.900E+00  4.74527E-03  9.83602E-17  3.51251E+00  7.71123E-05  8.7E-05
  8.000E+00  4.86597E-03  9.48544E-17  3.38731E+00  7.89516E-05  9.4E-05
  8.100E+00  4.98817E-03  9.15145E-17  3.26804E+00  8.07664E-05  4.2E-05
  8.200E+00  5.11188E-03  8.83344E-17  3.15448E+00  8.25829E-05  1.1E-04
  8.300E+00  5.23711E-03  8.53110E-17  3.04651E+00  8.44482E-05  1.1E-05
  8.400E+00  5.36383E-03  8.24283E-17  2.94357E+00  8.63090E-05  1.1E-04
  8.500E+00  5.49207E-03  7.96759E-17  2.84528E+00  8.81444E-05  6.2E-05
  8.600E+00  5.62181E-03  7.70534E-17  2.75163E+00  9.00201E-05  7.9E-05
  8.700E+00  5.75306E-03  7.45518E-17  2.66229E+00  9.19216E-05  9.8E-05
  8.800E+00  5.88581E-03  7.21585E-17  2.57683E+00  9.37882E-05  3.3E-05
  8.900E+00  6.02007E-03  6.98718E-17  2.49517E+00  9.56668E-05  1.1E-04
  9.000E+00  6.15583E-03  6.76886E-17  2.41720E+00  9.75943E-05  2.0E-05
  9.100E+00  6.29310E-03  6.55978E-17  2.34254E+00  9.95022E-05  1.0E-04
  9.200E+00  6.43187E-03  6.35944E-17  2.27100E+00  1.01388E-04  6.7E-05
  9.300E+00  6.57214E-03  6.16784E-17  2.20258E+00  1.03324E-04  6.9E-05
  9.400E+00  6.71392E-03  5.98429E-17  2.13703E+00  1.05273E-04  9.8E-05
  9.500E+00  6.85720E-03  5.80800E-17  2.07407E+00  1.07181E-04  2.3E-05
  9.600E+00  7.00198E-03  5.63900E-17  2.01372E+00  1.09114E-04  1.1E-04
  9.700E+00  7.14827E-03  5.47701E-17  1.95587E+00  1.11091E-04  2.7E-05
  9.800E+00  7.29605E-03  5.32124E-17  1.90025E+00  1.13035E-04  9.3E-05
  9.900E+00  7.44534E-03  5.17150E-17  1.84678E+00  1.14966E-04  6.9E-05
  1.000E+01  7.59612E-03  5.02780E-17  1.79546E+00  1.16953E-04  6.0E-05
  1.025E+01  7.97965E-03  4.69169E-17  1.67543E+00  1.21861E-04  6.9E-05
  1.050E+01  8.37255E-03  4.38614E-17  1.56632E+00  1.26849E-04  8.3E-05
  1.075E+01  8.77480E-03  4.10740E-17  1.46678E+00  1.31862E-04  3.3E-05
  1.100E+01  9.18641E-03  3.85234E-17  1.37569E+00  1.36851E-04  9.1E-05
  1.125E+01  9.60736E-03  3.61851E-17  1.29219E+00  1.41879E-04  5.5E-06
  1.150E+01  1.00376E-02  3.40370E-17  1.21548E+00  1.46974E-04  8.2E-05
  1.175E+01  1.04773E-02  3.20575E-17  1.14479E+00  1.52056E-04  3.8E-05
  1.200E+01  1.09262E-02  3.02292E-17  1.07950E+00  1.57104E-04  6.0E-05
  1.225E+01  1.13844E-02  2.85386E-17  1.01913E+00  1.62202E-04  5.9E-05
  1.250E+01  1.18520E-02  2.69720E-17  9.63189E-01  1.67337E-04  3.0E-05
  1.275E+01  1.23288E-02  2.55167E-17  9.11219E-01  1.72415E-04  6.5E-05
  1.300E+01  1.28150E-02  2.41629E-17  8.62873E-01  1.77461E-04  9.2E-07
  1.325E+01  1.33104E-02  2.29022E-17  8.17853E-01  1.82555E-04  5.7E-05
  1.350E+01  1.38150E-02  2.17259E-17  7.75847E-01  1.87636E-04  2.6E-05
  1.375E+01  1.43290E-02  2.06264E-17  7.36581E-01  1.92622E-04  3.8E-05
  1.400E+01  1.48521E-02  1.95977E-17  6.99846E-01  1.97585E-04  4.0E-05
  1.425E+01  1.53845E-02  1.86344E-17  6.65445E-01  2.02573E-04  1.3E-05
  1.450E+01  1.59262E-02  1.77307E-17  6.33174E-01  2.07484E-04  4.2E-05
  1.475E+01  1.64770E-02  1.68818E-17  6.02862E-01  2.12278E-04  1.1E-05
  1.500E+01  1.70371E-02  1.60842E-17  5.74376E-01  2.17053E-04  3.1E-05
