 #
 # Subroutine ELSEPA. Elastic scattering of electrons and positrons
 #                    by neutral atoms and positive ions
 #
 # Projectile: electron
 # Kinetic energy = 2.40000E+04 eV = 8.81984E+02 a.u.
 #
 # Element: Si,  Z =  14,  atomic weight = 2.80855E+01 g/mol
 #
 # Nuclear model: Fermi distribution
 #                Average radius = 3.25245E-13 cm
 #                Skin thickness = 5.46000E-14 cm
 #
 # Number of electrons = 14
 #
 # Electron density: Read from file z_014.den   
 #                   Number of data points =  761
 #                   Volume integral = 1.40000E+01
 #
 # Furness-McCarthy exchange potential
 #
 # Total elastic cross section = 9.80025E-18 cm**2 = 3.49973E-01 a0**2
 # 1st transport cross section = 6.54192E-20 cm**2 = 2.33616E-03 a0**2
 # 2nd transport cross section = 1.61464E-19 cm**2 = 5.76598E-03 a0**2
 #
 #
 # Differential cross section:                       MU=(1-COS(THETA))/2
 #
 #  THETA        MU          DCS          DCS        Sherman      error
 #  (deg)                 (cm**2/sr)   (a0**2/sr)    function
 #----------------------------------------------------------------------
  0.000E+00  0.00000E+00  3.55829E-15  1.27069E+02  0.00000E+00  1.0E-07
  1.000E-04  7.61557E-13  3.55829E-15  1.27069E+02  1.42817E-10  1.0E-07
  1.250E-04  1.18994E-12  3.55829E-15  1.27069E+02  1.78522E-10  1.0E-07
  1.500E-04  1.71346E-12  3.55829E-15  1.27069E+02  2.14226E-10  1.0E-07
  1.750E-04  2.33225E-12  3.55829E-15  1.27069E+02  2.49930E-10  1.0E-07
  2.000E-04  3.04617E-12  3.55829E-15  1.27069E+02  2.85635E-10  1.0E-07
  2.250E-04  3.85530E-12  3.55829E-15  1.27069E+02  3.21339E-10  1.0E-07
  2.500E-04  4.75964E-12  3.55829E-15  1.27069E+02  3.57044E-10  1.0E-07
  2.750E-04  5.75917E-12  3.55829E-15  1.27069E+02  3.92748E-10  1.0E-07
  3.000E-04  6.85391E-12  3.55829E-15  1.27069E+02  4.28452E-10  1.0E-07
  3.250E-04  8.04379E-12  3.55829E-15  1.27069E+02  4.64157E-10  1.0E-07
  3.500E-04  9.32893E-12  3.55829E-15  1.27069E+02  4.99861E-10  1.0E-07
  3.750E-04  1.07092E-11  3.55829E-15  1.27069E+02  5.35565E-10  1.0E-07
  4.000E-04  1.21847E-11  3.55829E-15  1.27069E+02  5.71270E-10  1.0E-07
  4.250E-04  1.37554E-11  3.55829E-15  1.27069E+02  6.06974E-10  1.0E-07
  4.500E-04  1.54213E-11  3.55829E-15  1.27069E+02  6.42678E-10  1.0E-07
  4.750E-04  1.71823E-11  3.55829E-15  1.27069E+02  6.78383E-10  1.0E-07
  5.000E-04  1.90386E-11  3.55829E-15  1.27069E+02  7.14087E-10  1.0E-07
  5.250E-04  2.09900E-11  3.55829E-15  1.27069E+02  7.49792E-10  1.0E-07
  5.500E-04  2.30367E-11  3.55829E-15  1.27069E+02  7.85496E-10  1.0E-07
  5.750E-04  2.51785E-11  3.55829E-15  1.27069E+02  8.21200E-10  1.0E-07
  6.000E-04  2.74156E-11  3.55829E-15  1.27069E+02  8.56905E-10  1.0E-07
  6.250E-04  2.97478E-11  3.55829E-15  1.27069E+02  8.92609E-10  1.0E-07
  6.500E-04  3.21752E-11  3.55829E-15  1.27069E+02  9.28313E-10  1.0E-07
  6.750E-04  3.46979E-11  3.55829E-15  1.27069E+02  9.64018E-10  1.0E-07
  7.000E-04  3.73157E-11  3.55829E-15  1.27069E+02  9.99722E-10  1.0E-07
  7.250E-04  4.00286E-11  3.55829E-15  1.27069E+02  1.03543E-09  1.0E-07
  7.500E-04  4.28368E-11  3.55829E-15  1.27069E+02  1.07113E-09  1.0E-07
  7.750E-04  4.57402E-11  3.55829E-15  1.27069E+02  1.10684E-09  1.0E-07
  8.000E-04  4.87388E-11  3.55829E-15  1.27069E+02  1.14254E-09  1.0E-07
  8.250E-04  5.18325E-11  3.55829E-15  1.27069E+02  1.17824E-09  1.0E-07
  8.500E-04  5.50215E-11  3.55829E-15  1.27069E+02  1.21395E-09  1.0E-07
  8.750E-04  5.83057E-11  3.55829E-15  1.27069E+02  1.24965E-09  1.0E-07
  9.000E-04  6.16850E-11  3.55829E-15  1.27069E+02  1.28536E-09  1.0E-07
  9.250E-04  6.51595E-11  3.55829E-15  1.27069E+02  1.32106E-09  1.0E-07
  9.500E-04  6.87293E-11  3.55829E-15  1.27069E+02  1.35677E-09  1.0E-07
  9.750E-04  7.23943E-11  3.55829E-15  1.27069E+02  1.39247E-09  1.0E-07
  1.000E-03  7.61544E-11  3.55829E-15  1.27069E+02  1.42817E-09  1.0E-07
  1.250E-03  1.18991E-10  3.55828E-15  1.27069E+02  1.78522E-09  1.0E-07
  1.500E-03  1.71347E-10  3.55828E-15  1.27069E+02  2.14226E-09  1.0E-07
  1.750E-03  2.33223E-10  3.55828E-15  1.27068E+02  2.49931E-09  1.0E-07
  2.000E-03  3.04617E-10  3.55828E-15  1.27068E+02  2.85635E-09  1.0E-07
  2.250E-03  3.85531E-10  3.55827E-15  1.27068E+02  3.21340E-09  1.0E-07
  2.500E-03  4.75965E-10  3.55827E-15  1.27068E+02  3.57044E-09  1.0E-07
  2.750E-03  5.75917E-10  3.55827E-15  1.27068E+02  3.92749E-09  1.0E-07
  3.000E-03  6.85389E-10  3.55826E-15  1.27068E+02  4.28453E-09  1.0E-07
  3.250E-03  8.04380E-10  3.55826E-15  1.27068E+02  4.64158E-09  1.0E-07
  3.500E-03  9.32891E-10  3.55826E-15  1.27068E+02  4.99863E-09  1.0E-07
  3.750E-03  1.07092E-09  3.55825E-15  1.27067E+02  5.35568E-09  1.0E-07
  4.000E-03  1.21847E-09  3.55825E-15  1.27067E+02  5.71273E-09  1.0E-07
  4.250E-03  1.37554E-09  3.55824E-15  1.27067E+02  6.06977E-09  1.0E-07
  4.500E-03  1.54213E-09  3.55823E-15  1.27067E+02  6.42682E-09  1.0E-07
  4.750E-03  1.71823E-09  3.55823E-15  1.27067E+02  6.78388E-09  1.0E-07
  5.000E-03  1.90386E-09  3.55822E-15  1.27066E+02  7.14093E-09  1.0E-07
  5.250E-03  2.09900E-09  3.55822E-15  1.27066E+02  7.49798E-09  1.0E-07
  5.500E-03  2.30367E-09  3.55821E-15  1.27066E+02  7.85503E-09  1.0E-07
  5.750E-03  2.51785E-09  3.55820E-15  1.27066E+02  8.21209E-09  1.0E-07
  6.000E-03  2.74156E-09  3.55819E-15  1.27065E+02  8.56914E-09  1.0E-07
  6.250E-03  2.97478E-09  3.55819E-15  1.27065E+02  8.92620E-09  1.0E-07
  6.500E-03  3.21752E-09  3.55818E-15  1.27065E+02  9.28325E-09  1.0E-07
  6.750E-03  3.46978E-09  3.55817E-15  1.27065E+02  9.64031E-09  1.0E-07
  7.000E-03  3.73156E-09  3.55816E-15  1.27064E+02  9.99737E-09  1.0E-07
  7.250E-03  4.00286E-09  3.55815E-15  1.27064E+02  1.03544E-08  1.0E-07
  7.500E-03  4.28368E-09  3.55814E-15  1.27064E+02  1.07115E-08  1.0E-07
  7.750E-03  4.57402E-09  3.55813E-15  1.27063E+02  1.10686E-08  1.0E-07
  8.000E-03  4.87388E-09  3.55812E-15  1.27063E+02  1.14256E-08  1.0E-07
  8.250E-03  5.18326E-09  3.55811E-15  1.27062E+02  1.17827E-08  1.0E-07
  8.500E-03  5.50215E-09  3.55810E-15  1.27062E+02  1.21398E-08  1.0E-07
  8.750E-03  5.83057E-09  3.55809E-15  1.27062E+02  1.24968E-08  1.0E-07
  9.000E-03  6.16850E-09  3.55808E-15  1.27061E+02  1.28539E-08  1.0E-07
  9.250E-03  6.51596E-09  3.55806E-15  1.27061E+02  1.32110E-08  1.0E-07
  9.500E-03  6.87293E-09  3.55805E-15  1.27060E+02  1.35680E-08  1.0E-07
  9.750E-03  7.23942E-09  3.55804E-15  1.27060E+02  1.39251E-08  1.0E-07
  1.000E-02  7.61544E-09  3.55803E-15  1.27059E+02  1.42822E-08  1.0E-07
  1.250E-02  1.18991E-08  3.55788E-15  1.27054E+02  1.78530E-08  1.0E-07
  1.500E-02  1.71347E-08  3.55770E-15  1.27048E+02  2.14241E-08  1.0E-07
  1.750E-02  2.33223E-08  3.55749E-15  1.27040E+02  2.49954E-08  1.0E-07
  2.000E-02  3.04617E-08  3.55724E-15  1.27031E+02  2.85670E-08  1.0E-07
  2.250E-02  3.85531E-08  3.55697E-15  1.27022E+02  3.21390E-08  1.0E-07
  2.500E-02  4.75965E-08  3.55666E-15  1.27011E+02  3.57113E-08  1.0E-07
  2.750E-02  5.75917E-08  3.55631E-15  1.26998E+02  3.92840E-08  1.0E-07
  3.000E-02  6.85389E-08  3.55594E-15  1.26985E+02  4.28572E-08  1.0E-07
  3.250E-02  8.04380E-08  3.55553E-15  1.26970E+02  4.64309E-08  1.0E-07
  3.500E-02  9.32891E-08  3.55509E-15  1.26955E+02  5.00051E-08  1.0E-07
  3.750E-02  1.07092E-07  3.55462E-15  1.26938E+02  5.35799E-08  1.0E-07
  4.000E-02  1.21847E-07  3.55411E-15  1.26920E+02  5.71553E-08  1.0E-07
  4.250E-02  1.37554E-07  3.55358E-15  1.26900E+02  6.07314E-08  1.0E-07
  4.500E-02  1.54213E-07  3.55301E-15  1.26880E+02  6.43082E-08  1.0E-07
  4.750E-02  1.71823E-07  3.55240E-15  1.26859E+02  6.78858E-08  1.0E-07
  5.000E-02  1.90386E-07  3.55177E-15  1.26836E+02  7.14641E-08  1.0E-07
  5.250E-02  2.09900E-07  3.55110E-15  1.26812E+02  7.50433E-08  1.0E-07
  5.500E-02  2.30367E-07  3.55040E-15  1.26787E+02  7.86233E-08  1.0E-07
  5.750E-02  2.51785E-07  3.54967E-15  1.26761E+02  8.22043E-08  1.0E-07
  6.000E-02  2.74156E-07  3.54891E-15  1.26734E+02  8.57862E-08  1.0E-07
  6.250E-02  2.97478E-07  3.54811E-15  1.26705E+02  8.93691E-08  1.0E-07
  6.500E-02  3.21752E-07  3.54728E-15  1.26676E+02  9.29530E-08  1.0E-07
  6.750E-02  3.46978E-07  3.54642E-15  1.26645E+02  9.65381E-08  1.0E-07
  7.000E-02  3.73156E-07  3.54553E-15  1.26613E+02  1.00124E-07  1.0E-07
  7.250E-02  4.00286E-07  3.54460E-15  1.26580E+02  1.03712E-07  1.0E-07
  7.500E-02  4.28368E-07  3.54364E-15  1.26546E+02  1.07300E-07  1.0E-07
  7.750E-02  4.57402E-07  3.54265E-15  1.26510E+02  1.10890E-07  1.0E-07
  8.000E-02  4.87388E-07  3.54163E-15  1.26474E+02  1.14481E-07  1.0E-07
  8.250E-02  5.18325E-07  3.54058E-15  1.26436E+02  1.18073E-07  1.0E-07
  8.500E-02  5.50215E-07  3.53949E-15  1.26398E+02  1.21667E-07  1.0E-07
  8.750E-02  5.83057E-07  3.53838E-15  1.26358E+02  1.25262E-07  1.0E-07
  9.000E-02  6.16850E-07  3.53723E-15  1.26317E+02  1.28859E-07  1.0E-07
  9.250E-02  6.51596E-07  3.53605E-15  1.26274E+02  1.32457E-07  1.0E-07
  9.500E-02  6.87293E-07  3.53483E-15  1.26231E+02  1.36056E-07  1.0E-07
  9.750E-02  7.23942E-07  3.53359E-15  1.26187E+02  1.39658E-07  1.0E-07
  1.000E-01  7.61543E-07  3.53231E-15  1.26141E+02  1.43261E-07  1.0E-07
  1.250E-01  1.18991E-06  3.51782E-15  1.25624E+02  1.79387E-07  1.0E-07
  1.500E-01  1.71347E-06  3.50022E-15  1.24995E+02  2.15721E-07  1.0E-07
  1.750E-01  2.33223E-06  3.47958E-15  1.24258E+02  2.52304E-07  1.0E-07
  2.000E-01  3.04617E-06  3.45598E-15  1.23415E+02  2.89178E-07  1.0E-07
  2.250E-01  3.85531E-06  3.42950E-15  1.22470E+02  3.26382E-07  1.0E-07
  2.500E-01  4.75964E-06  3.40025E-15  1.21425E+02  3.63960E-07  1.0E-07
  2.750E-01  5.75916E-06  3.36833E-15  1.20285E+02  4.01951E-07  1.0E-07
  3.000E-01  6.85388E-06  3.33385E-15  1.19054E+02  4.40396E-07  1.0E-07
  3.250E-01  8.04378E-06  3.29695E-15  1.17736E+02  4.79337E-07  1.0E-07
  3.500E-01  9.32888E-06  3.25773E-15  1.16336E+02  5.18814E-07  1.0E-07
  3.750E-01  1.07092E-05  3.21635E-15  1.14858E+02  5.58867E-07  1.0E-07
  4.000E-01  1.21846E-05  3.17293E-15  1.13307E+02  5.99536E-07  1.0E-07
  4.250E-01  1.37553E-05  3.12762E-15  1.11689E+02  6.40862E-07  1.0E-07
  4.500E-01  1.54212E-05  3.08056E-15  1.10009E+02  6.82884E-07  1.0E-07
  4.750E-01  1.71822E-05  3.03190E-15  1.08271E+02  7.25641E-07  1.0E-07
  5.000E-01  1.90385E-05  2.98178E-15  1.06481E+02  7.69172E-07  1.0E-07
  5.250E-01  2.09899E-05  2.93035E-15  1.04645E+02  8.13517E-07  1.0E-07
  5.500E-01  2.30365E-05  2.87776E-15  1.02767E+02  8.58714E-07  1.0E-07
  5.750E-01  2.51783E-05  2.82414E-15  1.00852E+02  9.04800E-07  1.0E-07
  6.000E-01  2.74153E-05  2.76965E-15  9.89061E+01  9.51813E-07  1.0E-07
  6.250E-01  2.97475E-05  2.71442E-15  9.69339E+01  9.99790E-07  1.0E-07
  6.500E-01  3.21749E-05  2.65859E-15  9.49401E+01  1.04877E-06  1.0E-07
  6.750E-01  3.46974E-05  2.60229E-15  9.29295E+01  1.09878E-06  1.0E-07
  7.000E-01  3.73152E-05  2.54564E-15  9.09066E+01  1.14987E-06  1.0E-07
  7.250E-01  4.00281E-05  2.48878E-15  8.88759E+01  1.20207E-06  1.0E-07
  7.500E-01  4.28362E-05  2.43181E-15  8.68414E+01  1.25541E-06  1.0E-07
  7.750E-01  4.57395E-05  2.37484E-15  8.48072E+01  1.30992E-06  1.0E-07
  8.000E-01  4.87380E-05  2.31799E-15  8.27770E+01  1.36565E-06  1.0E-07
  8.250E-01  5.18317E-05  2.26136E-15  8.07545E+01  1.42262E-06  1.0E-07
  8.500E-01  5.50205E-05  2.20503E-15  7.87430E+01  1.48086E-06  1.0E-07
  8.750E-01  5.83045E-05  2.14909E-15  7.67455E+01  1.54041E-06  1.0E-07
  9.000E-01  6.16838E-05  2.09364E-15  7.47652E+01  1.60129E-06  1.0E-07
  9.250E-01  6.51582E-05  2.03874E-15  7.28046E+01  1.66355E-06  1.0E-07
  9.500E-01  6.87277E-05  1.98446E-15  7.08662E+01  1.72719E-06  1.0E-07
  9.750E-01  7.23925E-05  1.93086E-15  6.89524E+01  1.79226E-06  1.0E-07
  1.000E+00  7.61524E-05  1.87802E-15  6.70652E+01  1.85878E-06  1.0E-07
  1.100E+00  9.21439E-05  1.67503E-15  5.98164E+01  2.13988E-06  1.0E-07
  1.200E+00  1.09658E-04  1.48718E-15  5.31082E+01  2.44611E-06  1.0E-07
  1.300E+00  1.28695E-04  1.31579E-15  4.69876E+01  2.77873E-06  1.0E-07
  1.400E+00  1.49255E-04  1.16121E-15  4.14676E+01  3.13869E-06  1.0E-07
  1.500E+00  1.71338E-04  1.02312E-15  3.65363E+01  3.52658E-06  1.0E-07
  1.600E+00  1.94942E-04  9.00701E-16  3.21646E+01  3.94271E-06  1.0E-07
  1.700E+00  2.20070E-04  7.92828E-16  2.83124E+01  4.38704E-06  1.0E-07
  1.800E+00  2.46720E-04  6.98218E-16  2.49338E+01  4.85921E-06  1.0E-07
  1.900E+00  2.74892E-04  6.15534E-16  2.19811E+01  5.35851E-06  1.0E-07
  2.000E+00  3.04586E-04  5.43453E-16  1.94070E+01  5.88397E-06  1.0E-07
  2.100E+00  3.35803E-04  4.80717E-16  1.71667E+01  6.43433E-06  1.0E-07
  2.200E+00  3.68542E-04  4.26162E-16  1.52185E+01  7.00813E-06  1.0E-07
  2.300E+00  4.02802E-04  3.78732E-16  1.35248E+01  7.60376E-06  1.0E-07
  2.400E+00  4.38585E-04  3.37482E-16  1.20517E+01  8.21949E-06  1.0E-07
  2.500E+00  4.75889E-04  3.01578E-16  1.07695E+01  8.85354E-06  1.0E-07
  2.600E+00  5.14715E-04  2.70287E-16  9.65214E+00  9.50407E-06  1.0E-07
  2.700E+00  5.55063E-04  2.42975E-16  8.67681E+00  1.01693E-05  1.0E-07
  2.800E+00  5.96931E-04  2.19091E-16  7.82388E+00  1.08476E-05  1.0E-07
  2.900E+00  6.40321E-04  1.98159E-16  7.07639E+00  1.15373E-05  1.0E-07
  3.000E+00  6.85233E-04  1.79773E-16  6.41980E+00  1.22369E-05  1.0E-07
  3.100E+00  7.31665E-04  1.63582E-16  5.84161E+00  1.29452E-05  1.0E-07
  3.200E+00  7.79618E-04  1.49286E-16  5.33111E+00  1.36609E-05  1.0E-07
  3.300E+00  8.29092E-04  1.36630E-16  4.87916E+00  1.43831E-05  1.0E-07
  3.400E+00  8.80086E-04  1.25394E-16  4.47790E+00  1.51109E-05  1.0E-07
  3.500E+00  9.32601E-04  1.15390E-16  4.12065E+00  1.58435E-05  1.0E-07
  3.600E+00  9.86636E-04  1.06457E-16  3.80164E+00  1.65803E-05  1.0E-07
  3.700E+00  1.04219E-03  9.84570E-17  3.51596E+00  1.73210E-05  1.0E-07
  3.800E+00  1.09927E-03  9.12723E-17  3.25939E+00  1.80650E-05  1.0E-07
  3.900E+00  1.15786E-03  8.48011E-17  3.02830E+00  1.88121E-05  1.0E-07
  4.000E+00  1.21797E-03  7.89560E-17  2.81957E+00  1.95619E-05  1.0E-07
  4.100E+00  1.27961E-03  7.36616E-17  2.63050E+00  2.03143E-05  1.0E-07
  4.200E+00  1.34276E-03  6.88529E-17  2.45878E+00  2.10690E-05  1.0E-07
  4.300E+00  1.40743E-03  6.44738E-17  2.30240E+00  2.18259E-05  1.0E-07
  4.400E+00  1.47362E-03  6.04754E-17  2.15962E+00  2.25848E-05  1.0E-07
  4.500E+00  1.54133E-03  5.68154E-17  2.02892E+00  2.33455E-05  1.0E-07
  4.600E+00  1.61056E-03  5.34571E-17  1.90899E+00  2.41078E-05  1.0E-07
  4.700E+00  1.68131E-03  5.03683E-17  1.79868E+00  2.48713E-05  1.0E-07
  4.800E+00  1.75357E-03  4.75209E-17  1.69700E+00  2.56360E-05  1.0E-07
  4.900E+00  1.82735E-03  4.48904E-17  1.60307E+00  2.64014E-05  1.0E-07
  5.000E+00  1.90265E-03  4.24552E-17  1.51610E+00  2.71672E-05  1.0E-07
  5.100E+00  1.97947E-03  4.01963E-17  1.43544E+00  2.79331E-05  1.0E-07
  5.200E+00  2.05780E-03  3.80970E-17  1.36047E+00  2.86987E-05  1.0E-07
  5.300E+00  2.13765E-03  3.61424E-17  1.29067E+00  2.94634E-05  1.0E-07
  5.400E+00  2.21902E-03  3.43195E-17  1.22557E+00  3.02269E-05  1.0E-07
  5.500E+00  2.30190E-03  3.26166E-17  1.16476E+00  3.09886E-05  1.0E-07
  5.600E+00  2.38630E-03  3.10234E-17  1.10786E+00  3.17480E-05  1.0E-07
  5.700E+00  2.47222E-03  2.95305E-17  1.05455E+00  3.25044E-05  1.0E-07
  5.800E+00  2.55965E-03  2.81297E-17  1.00453E+00  3.32573E-05  1.0E-07
  5.900E+00  2.64859E-03  2.68137E-17  9.57535E-01  3.40060E-05  1.0E-07
  6.000E+00  2.73905E-03  2.55757E-17  9.13326E-01  3.47498E-05  1.0E-07
  6.100E+00  2.83103E-03  2.44098E-17  8.71690E-01  3.54879E-05  1.0E-07
  6.200E+00  2.92452E-03  2.33105E-17  8.32434E-01  3.62198E-05  1.0E-07
  6.300E+00  3.01952E-03  2.22730E-17  7.95384E-01  3.69446E-05  1.0E-07
  6.400E+00  3.11604E-03  2.12928E-17  7.60381E-01  3.76614E-05  1.0E-07
  6.500E+00  3.21407E-03  2.03659E-17  7.27281E-01  3.83696E-05  1.0E-07
  6.600E+00  3.31362E-03  1.94887E-17  6.95953E-01  3.90683E-05  1.0E-07
  6.700E+00  3.41468E-03  1.86577E-17  6.66278E-01  3.97566E-05  1.0E-07
  6.800E+00  3.51725E-03  1.78699E-17  6.38146E-01  4.04336E-05  1.0E-07
  6.900E+00  3.62133E-03  1.71226E-17  6.11458E-01  4.10985E-05  1.0E-07
  7.000E+00  3.72692E-03  1.64131E-17  5.86121E-01  4.17504E-05  1.0E-07
  7.100E+00  3.83403E-03  1.57391E-17  5.62052E-01  4.23883E-05  1.0E-07
  7.200E+00  3.94265E-03  1.50984E-17  5.39172E-01  4.30114E-05  1.0E-07
  7.300E+00  4.05278E-03  1.44890E-17  5.17411E-01  4.36187E-05  1.0E-07
  7.400E+00  4.16442E-03  1.39090E-17  4.96700E-01  4.42092E-05  1.0E-07
  7.500E+00  4.27757E-03  1.33568E-17  4.76980E-01  4.47819E-05  1.0E-07
  7.600E+00  4.39223E-03  1.28307E-17  4.58193E-01  4.53360E-05  1.0E-07
  7.700E+00  4.50840E-03  1.23293E-17  4.40287E-01  4.58704E-05  1.0E-07
  7.800E+00  4.62608E-03  1.18511E-17  4.23212E-01  4.63841E-05  1.0E-07
  7.900E+00  4.74527E-03  1.13950E-17  4.06923E-01  4.68762E-05  1.0E-07
  8.000E+00  4.86597E-03  1.09596E-17  3.91376E-01  4.73456E-05  1.0E-07
  8.100E+00  4.98817E-03  1.05440E-17  3.76532E-01  4.77913E-05  1.0E-07
  8.200E+00  5.11188E-03  1.01470E-17  3.62354E-01  4.82124E-05  1.0E-07
  8.300E+00  5.23711E-03  9.76759E-18  3.48807E-01  4.86078E-05  1.0E-07
  8.400E+00  5.36383E-03  9.40498E-18  3.35858E-01  4.89766E-05  1.0E-07
  8.500E+00  5.49207E-03  9.05825E-18  3.23476E-01  4.93177E-05  1.0E-07
  8.600E+00  5.62181E-03  8.72661E-18  3.11633E-01  4.96301E-05  1.0E-07
  8.700E+00  5.75306E-03  8.40929E-18  3.00301E-01  4.99129E-05  1.0E-07
  8.800E+00  5.88581E-03  8.10558E-18  2.89455E-01  5.01649E-05  1.0E-07
  8.900E+00  6.02007E-03  7.81481E-18  2.79072E-01  5.03853E-05  1.0E-07
  9.000E+00  6.15583E-03  7.53634E-18  2.69128E-01  5.05730E-05  1.0E-07
  9.100E+00  6.29310E-03  7.26958E-18  2.59601E-01  5.07271E-05  1.0E-07
  9.200E+00  6.43187E-03  7.01396E-18  2.50473E-01  5.08466E-05  1.0E-07
  9.300E+00  6.57214E-03  6.76895E-18  2.41724E-01  5.09304E-05  1.0E-07
  9.400E+00  6.71392E-03  6.53406E-18  2.33335E-01  5.09777E-05  1.0E-07
  9.500E+00  6.85720E-03  6.30879E-18  2.25291E-01  5.09875E-05  1.0E-07
  9.600E+00  7.00198E-03  6.09271E-18  2.17574E-01  5.09588E-05  1.0E-07
  9.700E+00  7.14827E-03  5.88538E-18  2.10171E-01  5.08907E-05  1.0E-07
  9.800E+00  7.29605E-03  5.68640E-18  2.03065E-01  5.07823E-05  1.0E-07
  9.900E+00  7.44534E-03  5.49540E-18  1.96244E-01  5.06327E-05  1.0E-07
  1.000E+01  7.59612E-03  5.31199E-18  1.89695E-01  5.04409E-05  1.0E-07
  1.025E+01  7.97965E-03  4.88455E-18  1.74431E-01  4.97711E-05  1.0E-07
  1.050E+01  8.37255E-03  4.49762E-18  1.60613E-01  4.88189E-05  1.0E-07
  1.075E+01  8.77480E-03  4.14688E-18  1.48088E-01  4.75712E-05  1.0E-07
  1.100E+01  9.18641E-03  3.82850E-18  1.36718E-01  4.60154E-05  1.0E-07
  1.125E+01  9.60736E-03  3.53912E-18  1.26384E-01  4.41398E-05  1.0E-07
  1.150E+01  1.00376E-02  3.27574E-18  1.16979E-01  4.19331E-05  1.0E-07
  1.175E+01  1.04773E-02  3.03573E-18  1.08408E-01  3.93848E-05  1.0E-07
  1.200E+01  1.09262E-02  2.81674E-18  1.00588E-01  3.64848E-05  1.0E-07
  1.225E+01  1.13844E-02  2.61667E-18  9.34431E-02  3.32238E-05  1.0E-07
  1.250E+01  1.18520E-02  2.43367E-18  8.69080E-02  2.95932E-05  1.0E-07
  1.275E+01  1.23288E-02  2.26608E-18  8.09231E-02  2.55849E-05  1.0E-07
  1.300E+01  1.28150E-02  2.11241E-18  7.54355E-02  2.11913E-05  1.0E-07
  1.325E+01  1.33104E-02  1.97134E-18  7.03979E-02  1.64056E-05  1.0E-07
  1.350E+01  1.38150E-02  1.84169E-18  6.57681E-02  1.12215E-05  1.0E-07
  1.375E+01  1.43290E-02  1.72240E-18  6.15081E-02  0.00000E+00  1.0E-07
  1.400E+01  1.48521E-02  1.61251E-18  5.75839E-02  0.00000E+00  1.0E-07
  1.425E+01  1.53845E-02  1.51118E-18  5.39651E-02 -6.77750E-06  1.0E-07
  1.450E+01  1.59262E-02  1.41762E-18  5.06242E-02 -1.36089E-05  1.0E-07
  1.475E+01  1.64770E-02  1.33116E-18  4.75364E-02 -2.08631E-05  1.0E-07
  1.500E+01  1.70371E-02  1.25116E-18  4.46796E-02 -2.85439E-05  1.0E-07
  1.525E+01  1.76063E-02  1.17706E-18  4.20337E-02 -3.66544E-05  1.0E-07
  1.550E+01  1.81848E-02  1.10837E-18  3.95806E-02 -4.51976E-05  1.0E-07
