 #
 # Subroutine ELSEPA. Elastic scattering of electrons and positrons
 #                    by neutral atoms and positive ions
 #
 # Projectile: electron
 # Kinetic energy = 2.20000E+04 eV = 8.08485E+02 a.u.
 #
 # Element: Si,  Z =  14,  atomic weight = 2.80855E+01 g/mol
 #
 # Nuclear model: Fermi distribution
 #                Average radius = 3.25245E-13 cm
 #                Skin thickness = 5.46000E-14 cm
 #
 # Number of electrons = 14
 #
 # Electron density: Read from file z_014.den   
 #                   Number of data points =  761
 #                   Volume integral = 1.40000E+01
 #
 # Furness-McCarthy exchange potential
 #
 # Total elastic cross section = 1.05965E-17 cm**2 = 3.78407E-01 a0**2
 # 1st transport cross section = 7.63772E-20 cm**2 = 2.72748E-03 a0**2
 # 2nd transport cross section = 1.87719E-19 cm**2 = 6.70356E-03 a0**2
 #
 #
 # Differential cross section:                       MU=(1-COS(THETA))/2
 #
 #  THETA        MU          DCS          DCS        Sherman      error
 #  (deg)                 (cm**2/sr)   (a0**2/sr)    function
 #----------------------------------------------------------------------
  0.000E+00  0.00000E+00  3.52421E-15  1.25852E+02  0.00000E+00  1.0E-07
  1.000E-04  7.61557E-13  3.52421E-15  1.25852E+02  1.48740E-10  1.0E-07
  1.250E-04  1.18994E-12  3.52421E-15  1.25852E+02  1.85925E-10  1.0E-07
  1.500E-04  1.71346E-12  3.52421E-15  1.25852E+02  2.23110E-10  1.0E-07
  1.750E-04  2.33225E-12  3.52421E-15  1.25852E+02  2.60295E-10  1.0E-07
  2.000E-04  3.04617E-12  3.52421E-15  1.25852E+02  2.97480E-10  1.0E-07
  2.250E-04  3.85530E-12  3.52421E-15  1.25852E+02  3.34666E-10  1.0E-07
  2.500E-04  4.75964E-12  3.52421E-15  1.25852E+02  3.71851E-10  1.0E-07
  2.750E-04  5.75917E-12  3.52421E-15  1.25852E+02  4.09036E-10  1.0E-07
  3.000E-04  6.85391E-12  3.52421E-15  1.25852E+02  4.46221E-10  1.0E-07
  3.250E-04  8.04379E-12  3.52421E-15  1.25852E+02  4.83406E-10  1.0E-07
  3.500E-04  9.32893E-12  3.52421E-15  1.25852E+02  5.20591E-10  1.0E-07
  3.750E-04  1.07092E-11  3.52421E-15  1.25852E+02  5.57776E-10  1.0E-07
  4.000E-04  1.21847E-11  3.52421E-15  1.25852E+02  5.94961E-10  1.0E-07
  4.250E-04  1.37554E-11  3.52421E-15  1.25852E+02  6.32146E-10  1.0E-07
  4.500E-04  1.54213E-11  3.52421E-15  1.25852E+02  6.69331E-10  1.0E-07
  4.750E-04  1.71823E-11  3.52421E-15  1.25852E+02  7.06516E-10  1.0E-07
  5.000E-04  1.90386E-11  3.52421E-15  1.25852E+02  7.43701E-10  1.0E-07
  5.250E-04  2.09900E-11  3.52421E-15  1.25852E+02  7.80886E-10  1.0E-07
  5.500E-04  2.30367E-11  3.52421E-15  1.25852E+02  8.18071E-10  1.0E-07
  5.750E-04  2.51785E-11  3.52421E-15  1.25852E+02  8.55257E-10  1.0E-07
  6.000E-04  2.74156E-11  3.52421E-15  1.25852E+02  8.92442E-10  1.0E-07
  6.250E-04  2.97478E-11  3.52421E-15  1.25852E+02  9.29627E-10  1.0E-07
  6.500E-04  3.21752E-11  3.52421E-15  1.25852E+02  9.66812E-10  1.0E-07
  6.750E-04  3.46979E-11  3.52421E-15  1.25852E+02  1.00400E-09  1.0E-07
  7.000E-04  3.73157E-11  3.52421E-15  1.25852E+02  1.04118E-09  1.0E-07
  7.250E-04  4.00286E-11  3.52421E-15  1.25852E+02  1.07837E-09  1.0E-07
  7.500E-04  4.28368E-11  3.52421E-15  1.25852E+02  1.11555E-09  1.0E-07
  7.750E-04  4.57402E-11  3.52421E-15  1.25852E+02  1.15274E-09  1.0E-07
  8.000E-04  4.87388E-11  3.52421E-15  1.25852E+02  1.18992E-09  1.0E-07
  8.250E-04  5.18325E-11  3.52421E-15  1.25852E+02  1.22711E-09  1.0E-07
  8.500E-04  5.50215E-11  3.52421E-15  1.25852E+02  1.26429E-09  1.0E-07
  8.750E-04  5.83057E-11  3.52421E-15  1.25852E+02  1.30148E-09  1.0E-07
  9.000E-04  6.16850E-11  3.52421E-15  1.25852E+02  1.33866E-09  1.0E-07
  9.250E-04  6.51595E-11  3.52421E-15  1.25852E+02  1.37585E-09  1.0E-07
  9.500E-04  6.87293E-11  3.52421E-15  1.25852E+02  1.41303E-09  1.0E-07
  9.750E-04  7.23943E-11  3.52421E-15  1.25852E+02  1.45022E-09  1.0E-07
  1.000E-03  7.61544E-11  3.52421E-15  1.25852E+02  1.48740E-09  1.0E-07
  1.250E-03  1.18991E-10  3.52421E-15  1.25852E+02  1.85925E-09  1.0E-07
  1.500E-03  1.71347E-10  3.52421E-15  1.25852E+02  2.23111E-09  1.0E-07
  1.750E-03  2.33223E-10  3.52421E-15  1.25852E+02  2.60296E-09  1.0E-07
  2.000E-03  3.04617E-10  3.52420E-15  1.25852E+02  2.97481E-09  1.0E-07
  2.250E-03  3.85531E-10  3.52420E-15  1.25852E+02  3.34666E-09  1.0E-07
  2.500E-03  4.75965E-10  3.52420E-15  1.25851E+02  3.71851E-09  1.0E-07
  2.750E-03  5.75917E-10  3.52420E-15  1.25851E+02  4.09037E-09  1.0E-07
  3.000E-03  6.85389E-10  3.52419E-15  1.25851E+02  4.46222E-09  1.0E-07
  3.250E-03  8.04380E-10  3.52419E-15  1.25851E+02  4.83407E-09  1.0E-07
  3.500E-03  9.32891E-10  3.52419E-15  1.25851E+02  5.20593E-09  1.0E-07
  3.750E-03  1.07092E-09  3.52418E-15  1.25851E+02  5.57778E-09  1.0E-07
  4.000E-03  1.21847E-09  3.52418E-15  1.25851E+02  5.94964E-09  1.0E-07
  4.250E-03  1.37554E-09  3.52417E-15  1.25850E+02  6.32149E-09  1.0E-07
  4.500E-03  1.54213E-09  3.52417E-15  1.25850E+02  6.69335E-09  1.0E-07
  4.750E-03  1.71823E-09  3.52416E-15  1.25850E+02  7.06521E-09  1.0E-07
  5.000E-03  1.90386E-09  3.52416E-15  1.25850E+02  7.43707E-09  1.0E-07
  5.250E-03  2.09900E-09  3.52415E-15  1.25850E+02  7.80892E-09  1.0E-07
  5.500E-03  2.30367E-09  3.52414E-15  1.25849E+02  8.18078E-09  1.0E-07
  5.750E-03  2.51785E-09  3.52414E-15  1.25849E+02  8.55264E-09  1.0E-07
  6.000E-03  2.74156E-09  3.52413E-15  1.25849E+02  8.92451E-09  1.0E-07
  6.250E-03  2.97478E-09  3.52412E-15  1.25849E+02  9.29637E-09  1.0E-07
  6.500E-03  3.21752E-09  3.52411E-15  1.25848E+02  9.66823E-09  1.0E-07
  6.750E-03  3.46978E-09  3.52411E-15  1.25848E+02  1.00401E-08  1.0E-07
  7.000E-03  3.73156E-09  3.52410E-15  1.25848E+02  1.04120E-08  1.0E-07
  7.250E-03  4.00286E-09  3.52409E-15  1.25848E+02  1.07838E-08  1.0E-07
  7.500E-03  4.28368E-09  3.52408E-15  1.25847E+02  1.11557E-08  1.0E-07
  7.750E-03  4.57402E-09  3.52407E-15  1.25847E+02  1.15276E-08  1.0E-07
  8.000E-03  4.87388E-09  3.52406E-15  1.25847E+02  1.18994E-08  1.0E-07
  8.250E-03  5.18326E-09  3.52405E-15  1.25846E+02  1.22713E-08  1.0E-07
  8.500E-03  5.50215E-09  3.52404E-15  1.25846E+02  1.26432E-08  1.0E-07
  8.750E-03  5.83057E-09  3.52403E-15  1.25846E+02  1.30151E-08  1.0E-07
  9.000E-03  6.16850E-09  3.52402E-15  1.25845E+02  1.33869E-08  1.0E-07
  9.250E-03  6.51596E-09  3.52401E-15  1.25845E+02  1.37588E-08  1.0E-07
  9.500E-03  6.87293E-09  3.52400E-15  1.25844E+02  1.41307E-08  1.0E-07
  9.750E-03  7.23942E-09  3.52399E-15  1.25844E+02  1.45026E-08  1.0E-07
  1.000E-02  7.61544E-09  3.52398E-15  1.25844E+02  1.48744E-08  1.0E-07
  1.250E-02  1.18991E-08  3.52384E-15  1.25839E+02  1.85934E-08  1.0E-07
  1.500E-02  1.71347E-08  3.52368E-15  1.25833E+02  2.23125E-08  1.0E-07
  1.750E-02  2.33223E-08  3.52349E-15  1.25826E+02  2.60318E-08  1.0E-07
  2.000E-02  3.04617E-08  3.52327E-15  1.25818E+02  2.97514E-08  1.0E-07
  2.250E-02  3.85531E-08  3.52302E-15  1.25809E+02  3.34714E-08  1.0E-07
  2.500E-02  4.75965E-08  3.52273E-15  1.25799E+02  3.71917E-08  1.0E-07
  2.750E-02  5.75917E-08  3.52242E-15  1.25788E+02  4.09124E-08  1.0E-07
  3.000E-02  6.85389E-08  3.52208E-15  1.25776E+02  4.46335E-08  1.0E-07
  3.250E-02  8.04380E-08  3.52171E-15  1.25763E+02  4.83551E-08  1.0E-07
  3.500E-02  9.32891E-08  3.52132E-15  1.25748E+02  5.20772E-08  1.0E-07
  3.750E-02  1.07092E-07  3.52089E-15  1.25733E+02  5.57999E-08  1.0E-07
  4.000E-02  1.21847E-07  3.52043E-15  1.25717E+02  5.95232E-08  1.0E-07
  4.250E-02  1.37554E-07  3.51994E-15  1.25699E+02  6.32471E-08  1.0E-07
  4.500E-02  1.54213E-07  3.51942E-15  1.25681E+02  6.69717E-08  1.0E-07
  4.750E-02  1.71823E-07  3.51888E-15  1.25661E+02  7.06970E-08  1.0E-07
  5.000E-02  1.90386E-07  3.51830E-15  1.25641E+02  7.44231E-08  1.0E-07
  5.250E-02  2.09900E-07  3.51770E-15  1.25619E+02  7.81499E-08  1.0E-07
  5.500E-02  2.30367E-07  3.51706E-15  1.25597E+02  8.18776E-08  1.0E-07
  5.750E-02  2.51785E-07  3.51640E-15  1.25573E+02  8.56062E-08  1.0E-07
  6.000E-02  2.74156E-07  3.51570E-15  1.25548E+02  8.93356E-08  1.0E-07
  6.250E-02  2.97478E-07  3.51498E-15  1.25522E+02  9.30661E-08  1.0E-07
  6.500E-02  3.21752E-07  3.51423E-15  1.25495E+02  9.67975E-08  1.0E-07
  6.750E-02  3.46978E-07  3.51345E-15  1.25468E+02  1.00530E-07  1.0E-07
  7.000E-02  3.73156E-07  3.51264E-15  1.25439E+02  1.04263E-07  1.0E-07
  7.250E-02  4.00286E-07  3.51180E-15  1.25409E+02  1.07998E-07  1.0E-07
  7.500E-02  4.28368E-07  3.51093E-15  1.25378E+02  1.11734E-07  1.0E-07
  7.750E-02  4.57402E-07  3.51003E-15  1.25346E+02  1.15471E-07  1.0E-07
  8.000E-02  4.87388E-07  3.50911E-15  1.25312E+02  1.19209E-07  1.0E-07
  8.250E-02  5.18325E-07  3.50815E-15  1.25278E+02  1.22949E-07  1.0E-07
  8.500E-02  5.50215E-07  3.50717E-15  1.25243E+02  1.26689E-07  1.0E-07
  8.750E-02  5.83057E-07  3.50615E-15  1.25207E+02  1.30431E-07  1.0E-07
  9.000E-02  6.16850E-07  3.50511E-15  1.25170E+02  1.34175E-07  1.0E-07
  9.250E-02  6.51596E-07  3.50404E-15  1.25131E+02  1.37920E-07  1.0E-07
  9.500E-02  6.87293E-07  3.50294E-15  1.25092E+02  1.41666E-07  1.0E-07
  9.750E-02  7.23942E-07  3.50181E-15  1.25052E+02  1.45414E-07  1.0E-07
  1.000E-01  7.61543E-07  3.50065E-15  1.25010E+02  1.49164E-07  1.0E-07
  1.250E-01  1.18991E-06  3.48749E-15  1.24541E+02  1.86752E-07  1.0E-07
  1.500E-01  1.71347E-06  3.47150E-15  1.23970E+02  2.24539E-07  1.0E-07
  1.750E-01  2.33223E-06  3.45274E-15  1.23300E+02  2.62564E-07  1.0E-07
  2.000E-01  3.04617E-06  3.43127E-15  1.22533E+02  3.00866E-07  1.0E-07
  2.250E-01  3.85531E-06  3.40717E-15  1.21672E+02  3.39486E-07  1.0E-07
  2.500E-01  4.75964E-06  3.38051E-15  1.20720E+02  3.78461E-07  1.0E-07
  2.750E-01  5.75916E-06  3.35139E-15  1.19680E+02  4.17832E-07  1.0E-07
  3.000E-01  6.85388E-06  3.31990E-15  1.18556E+02  4.57637E-07  1.0E-07
  3.250E-01  8.04378E-06  3.28615E-15  1.17351E+02  4.97916E-07  1.0E-07
  3.500E-01  9.32888E-06  3.25024E-15  1.16068E+02  5.38708E-07  1.0E-07
  3.750E-01  1.07092E-05  3.21229E-15  1.14713E+02  5.80051E-07  1.0E-07
  4.000E-01  1.21846E-05  3.17242E-15  1.13289E+02  6.21983E-07  1.0E-07
  4.250E-01  1.37553E-05  3.13073E-15  1.11800E+02  6.64544E-07  1.0E-07
  4.500E-01  1.54212E-05  3.08737E-15  1.10252E+02  7.07771E-07  1.0E-07
  4.750E-01  1.71822E-05  3.04245E-15  1.08648E+02  7.51702E-07  1.0E-07
  5.000E-01  1.90385E-05  2.99610E-15  1.06993E+02  7.96374E-07  1.0E-07
  5.250E-01  2.09899E-05  2.94844E-15  1.05291E+02  8.41826E-07  1.0E-07
  5.500E-01  2.30365E-05  2.89961E-15  1.03547E+02  8.88093E-07  1.0E-07
  5.750E-01  2.51783E-05  2.84973E-15  1.01766E+02  9.35214E-07  1.0E-07
  6.000E-01  2.74153E-05  2.79893E-15  9.99517E+01  9.83224E-07  1.0E-07
  6.250E-01  2.97475E-05  2.74733E-15  9.81089E+01  1.03216E-06  1.0E-07
  6.500E-01  3.21749E-05  2.69505E-15  9.62418E+01  1.08205E-06  1.0E-07
  6.750E-01  3.46974E-05  2.64220E-15  9.43547E+01  1.13295E-06  1.0E-07
  7.000E-01  3.73152E-05  2.58891E-15  9.24517E+01  1.18487E-06  1.0E-07
  7.250E-01  4.00281E-05  2.53528E-15  9.05366E+01  1.23785E-06  1.0E-07
  7.500E-01  4.28362E-05  2.48143E-15  8.86134E+01  1.29194E-06  1.0E-07
  7.750E-01  4.57395E-05  2.42745E-15  8.66857E+01  1.34716E-06  1.0E-07
  8.000E-01  4.87380E-05  2.37344E-15  8.47571E+01  1.40354E-06  1.0E-07
  8.250E-01  5.18317E-05  2.31950E-15  8.28308E+01  1.46112E-06  1.0E-07
  8.500E-01  5.50205E-05  2.26572E-15  8.09102E+01  1.51993E-06  1.0E-07
  8.750E-01  5.83045E-05  2.21217E-15  7.89980E+01  1.58000E-06  1.0E-07
  9.000E-01  6.16838E-05  2.15894E-15  7.70973E+01  1.64136E-06  1.0E-07
  9.250E-01  6.51582E-05  2.10611E-15  7.52106E+01  1.70404E-06  1.0E-07
  9.500E-01  6.87277E-05  2.05374E-15  7.33404E+01  1.76807E-06  1.0E-07
  9.750E-01  7.23925E-05  2.00189E-15  7.14889E+01  1.83347E-06  1.0E-07
  1.000E+00  7.61524E-05  1.95063E-15  6.96583E+01  1.90029E-06  1.0E-07
  1.100E+00  9.21439E-05  1.75242E-15  6.25801E+01  2.18210E-06  1.0E-07
  1.200E+00  1.09658E-04  1.56702E-15  5.59593E+01  2.48839E-06  1.0E-07
  1.300E+00  1.28695E-04  1.39606E-15  4.98541E+01  2.82049E-06  1.0E-07
  1.400E+00  1.49255E-04  1.24026E-15  4.42905E+01  3.17950E-06  1.0E-07
  1.500E+00  1.71338E-04  1.09967E-15  3.92699E+01  3.56619E-06  1.0E-07
  1.600E+00  1.94942E-04  9.73817E-16  3.47756E+01  3.98105E-06  1.0E-07
  1.700E+00  2.20070E-04  8.61887E-16  3.07785E+01  4.42427E-06  1.0E-07
  1.800E+00  2.46720E-04  7.62854E-16  2.72420E+01  4.89575E-06  1.0E-07
  1.900E+00  2.74892E-04  6.75584E-16  2.41256E+01  5.39506E-06  1.0E-07
  2.000E+00  3.04586E-04  5.98913E-16  2.13876E+01  5.92150E-06  1.0E-07
  2.100E+00  3.35803E-04  5.31699E-16  1.89873E+01  6.47408E-06  1.0E-07
  2.200E+00  3.68542E-04  4.72857E-16  1.68860E+01  7.05160E-06  1.0E-07
  2.300E+00  4.02802E-04  4.21385E-16  1.50479E+01  7.65265E-06  1.0E-07
  2.400E+00  4.38585E-04  3.76367E-16  1.34403E+01  8.27568E-06  1.0E-07
  2.500E+00  4.75889E-04  3.36981E-16  1.20338E+01  8.91904E-06  1.0E-07
  2.600E+00  5.14715E-04  3.02499E-16  1.08024E+01  9.58102E-06  1.0E-07
  2.700E+00  5.55063E-04  2.72275E-16  9.72313E+00  1.02599E-05  1.0E-07
  2.800E+00  5.96931E-04  2.45748E-16  8.77583E+00  1.09539E-05  1.0E-07
  2.900E+00  6.40321E-04  2.22426E-16  7.94298E+00  1.16614E-05  1.0E-07
  3.000E+00  6.85233E-04  2.01883E-16  7.20936E+00  1.23809E-05  1.0E-07
  3.100E+00  7.31665E-04  1.83749E-16  6.56180E+00  1.31108E-05  1.0E-07
  3.200E+00  7.79618E-04  1.67707E-16  5.98892E+00  1.38500E-05  1.0E-07
  3.300E+00  8.29092E-04  1.53481E-16  5.48090E+00  1.45971E-05  1.0E-07
  3.400E+00  8.80086E-04  1.40835E-16  5.02929E+00  1.53512E-05  1.0E-07
  3.500E+00  9.32601E-04  1.29564E-16  4.62680E+00  1.61114E-05  1.0E-07
  3.600E+00  9.86636E-04  1.19493E-16  4.26716E+00  1.68769E-05  1.0E-07
  3.700E+00  1.04219E-03  1.10470E-16  3.94494E+00  1.76470E-05  1.0E-07
  3.800E+00  1.09927E-03  1.02365E-16  3.65551E+00  1.84212E-05  1.0E-07
  3.900E+00  1.15786E-03  9.50645E-17  3.39481E+00  1.91991E-05  1.0E-07
  4.000E+00  1.21797E-03  8.84720E-17  3.15939E+00  1.99804E-05  1.0E-07
  4.100E+00  1.27961E-03  8.25030E-17  2.94623E+00  2.07647E-05  1.0E-07
  4.200E+00  1.34276E-03  7.70843E-17  2.75273E+00  2.15517E-05  1.0E-07
  4.300E+00  1.40743E-03  7.21529E-17  2.57663E+00  2.23413E-05  1.0E-07
  4.400E+00  1.47362E-03  6.76535E-17  2.41595E+00  2.31333E-05  1.0E-07
  4.500E+00  1.54133E-03  6.35384E-17  2.26900E+00  2.39275E-05  1.0E-07
  4.600E+00  1.61056E-03  5.97659E-17  2.13428E+00  2.47236E-05  1.0E-07
  4.700E+00  1.68131E-03  5.62993E-17  2.01048E+00  2.55216E-05  1.0E-07
  4.800E+00  1.75357E-03  5.31068E-17  1.89648E+00  2.63212E-05  1.0E-07
  4.900E+00  1.82735E-03  5.01603E-17  1.79126E+00  2.71222E-05  1.0E-07
  5.000E+00  1.90265E-03  4.74353E-17  1.69395E+00  2.79242E-05  1.0E-07
  5.100E+00  1.97947E-03  4.49100E-17  1.60377E+00  2.87271E-05  1.0E-07
  5.200E+00  2.05780E-03  4.25654E-17  1.52004E+00  2.95306E-05  1.0E-07
  5.300E+00  2.13765E-03  4.03844E-17  1.44215E+00  3.03341E-05  1.0E-07
  5.400E+00  2.21902E-03  3.83522E-17  1.36958E+00  3.11375E-05  1.0E-07
  5.500E+00  2.30190E-03  3.64553E-17  1.30184E+00  3.19402E-05  1.0E-07
  5.600E+00  2.38630E-03  3.46819E-17  1.23851E+00  3.27418E-05  1.0E-07
  5.700E+00  2.47222E-03  3.30215E-17  1.17922E+00  3.35419E-05  1.0E-07
  5.800E+00  2.55965E-03  3.14647E-17  1.12362E+00  3.43398E-05  1.0E-07
  5.900E+00  2.64859E-03  3.00028E-17  1.07142E+00  3.51351E-05  1.0E-07
  6.000E+00  2.73905E-03  2.86284E-17  1.02234E+00  3.59271E-05  1.0E-07
  6.100E+00  2.83103E-03  2.73346E-17  9.76135E-01  3.67153E-05  1.0E-07
  6.200E+00  2.92452E-03  2.61152E-17  9.32591E-01  3.74990E-05  1.0E-07
  6.300E+00  3.01952E-03  2.49648E-17  8.91507E-01  3.82775E-05  1.0E-07
  6.400E+00  3.11604E-03  2.38781E-17  8.52704E-01  3.90501E-05  1.0E-07
  6.500E+00  3.21407E-03  2.28508E-17  8.16017E-01  3.98162E-05  1.0E-07
  6.600E+00  3.31362E-03  2.18786E-17  7.81299E-01  4.05749E-05  1.0E-07
  6.700E+00  3.41468E-03  2.09577E-17  7.48415E-01  4.13256E-05  1.0E-07
  6.800E+00  3.51725E-03  2.00848E-17  7.17241E-01  4.20673E-05  1.0E-07
  6.900E+00  3.62133E-03  1.92566E-17  6.87665E-01  4.27994E-05  1.0E-07
  7.000E+00  3.72692E-03  1.84702E-17  6.59584E-01  4.35210E-05  1.0E-07
  7.100E+00  3.83403E-03  1.77231E-17  6.32904E-01  4.42312E-05  1.0E-07
  7.200E+00  3.94265E-03  1.70127E-17  6.07536E-01  4.49292E-05  1.0E-07
  7.300E+00  4.05278E-03  1.63369E-17  5.83401E-01  4.56142E-05  1.0E-07
  7.400E+00  4.16442E-03  1.56935E-17  5.60426E-01  4.62852E-05  1.0E-07
  7.500E+00  4.27757E-03  1.50807E-17  5.38541E-01  4.69413E-05  1.0E-07
  7.600E+00  4.39223E-03  1.44966E-17  5.17683E-01  4.75817E-05  1.0E-07
  7.700E+00  4.50840E-03  1.39397E-17  4.97795E-01  4.82054E-05  1.0E-07
  7.800E+00  4.62608E-03  1.34083E-17  4.78820E-01  4.88115E-05  1.0E-07
  7.900E+00  4.74527E-03  1.29012E-17  4.60710E-01  4.93990E-05  1.0E-07
  8.000E+00  4.86597E-03  1.24169E-17  4.43416E-01  4.99670E-05  1.0E-07
  8.100E+00  4.98817E-03  1.19543E-17  4.26894E-01  5.05146E-05  1.0E-07
  8.200E+00  5.11188E-03  1.15121E-17  4.11104E-01  5.10408E-05  1.0E-07
  8.300E+00  5.23711E-03  1.10893E-17  3.96007E-01  5.15447E-05  1.0E-07
  8.400E+00  5.36383E-03  1.06850E-17  3.81568E-01  5.20252E-05  1.0E-07
  8.500E+00  5.49207E-03  1.02981E-17  3.67752E-01  5.24814E-05  1.0E-07
  8.600E+00  5.62181E-03  9.92781E-18  3.54528E-01  5.29124E-05  1.0E-07
  8.700E+00  5.75306E-03  9.57325E-18  3.41867E-01  5.33171E-05  1.0E-07
  8.800E+00  5.88581E-03  9.23367E-18  3.29740E-01  5.36946E-05  1.0E-07
  8.900E+00  6.02007E-03  8.90831E-18  3.18122E-01  5.40439E-05  1.0E-07
  9.000E+00  6.15583E-03  8.59650E-18  3.06987E-01  5.43641E-05  1.0E-07
  9.100E+00  6.29310E-03  8.29758E-18  2.96312E-01  5.46542E-05  1.0E-07
  9.200E+00  6.43187E-03  8.01094E-18  2.86076E-01  5.49132E-05  1.0E-07
  9.300E+00  6.57214E-03  7.73599E-18  2.76257E-01  5.51401E-05  1.0E-07
  9.400E+00  6.71392E-03  7.47219E-18  2.66837E-01  5.53340E-05  1.0E-07
  9.500E+00  6.85720E-03  7.21901E-18  2.57796E-01  5.54940E-05  1.0E-07
  9.600E+00  7.00198E-03  6.97597E-18  2.49117E-01  5.56191E-05  1.0E-07
  9.700E+00  7.14827E-03  6.74261E-18  2.40783E-01  5.57084E-05  1.0E-07
  9.800E+00  7.29605E-03  6.51847E-18  2.32779E-01  5.57609E-05  1.0E-07
  9.900E+00  7.44534E-03  6.30315E-18  2.25090E-01  5.57757E-05  1.0E-07
  1.000E+01  7.59612E-03  6.09625E-18  2.17701E-01  5.57518E-05  1.0E-07
  1.025E+01  7.97965E-03  5.61342E-18  2.00459E-01  5.55175E-05  1.0E-07
  1.050E+01  8.37255E-03  5.17554E-18  1.84822E-01  5.50224E-05  1.0E-07
  1.075E+01  8.77480E-03  4.77790E-18  1.70622E-01  5.42530E-05  1.0E-07
  1.100E+01  9.18641E-03  4.41632E-18  1.57710E-01  5.31964E-05  1.0E-07
  1.125E+01  9.60736E-03  4.08710E-18  1.45953E-01  5.18402E-05  1.0E-07
  1.150E+01  1.00376E-02  3.78698E-18  1.35236E-01  5.01723E-05  1.0E-07
  1.175E+01  1.04773E-02  3.51305E-18  1.25453E-01  4.81815E-05  1.0E-07
  1.200E+01  1.09262E-02  3.26272E-18  1.16514E-01  4.58570E-05  1.0E-07
  1.225E+01  1.13844E-02  3.03369E-18  1.08335E-01  4.31886E-05  1.0E-07
  1.250E+01  1.18520E-02  2.82390E-18  1.00843E-01  4.01667E-05  1.0E-07
  1.275E+01  1.23288E-02  2.63151E-18  9.39730E-02  3.67824E-05  1.0E-07
  1.300E+01  1.28150E-02  2.45489E-18  8.76655E-02  3.30271E-05  1.0E-07
  1.325E+01  1.33104E-02  2.29255E-18  8.18683E-02  2.88932E-05  1.0E-07
  1.350E+01  1.38150E-02  2.14317E-18  7.65342E-02  2.43733E-05  1.0E-07
  1.375E+01  1.43290E-02  2.00558E-18  7.16207E-02  1.94607E-05  1.0E-07
  1.400E+01  1.48521E-02  1.87871E-18  6.70899E-02  1.41493E-05  1.0E-07
  1.425E+01  1.53845E-02  1.76159E-18  6.29075E-02  8.43322E-06  1.0E-07
  1.450E+01  1.59262E-02  1.65336E-18  5.90427E-02  0.00000E+00  1.0E-07
  1.475E+01  1.64770E-02  1.55325E-18  5.54676E-02  0.00000E+00  1.0E-07
  1.500E+01  1.70371E-02  1.46055E-18  5.21572E-02 -1.11923E-05  1.0E-07
  1.525E+01  1.76063E-02  1.37463E-18  4.90888E-02 -1.85745E-05  1.0E-07
  1.550E+01  1.81848E-02  1.29490E-18  4.62418E-02 -2.63832E-05  1.0E-07
