 #  Scattering amplitudes (in cm)      MU=(1-cos(TH))/2
 #  Z =  14,   projectile: electron
 #  Kinetic energy = 2.50000E+04 eV
 #
 # TH (deg)      MU          Re(F)        Im(F)        Re(G)        Im(G)
 #--------------------------------------------------------------------------
  0.000E+00  0.00000E+00  5.94722E-08  6.16645E-09  0.00000E+00  0.00000E+00
  1.000E-04  7.61557E-13  5.94722E-08  6.16645E-09  2.42778E-15  2.55937E-16
  1.250E-04  1.18994E-12  5.94722E-08  6.16645E-09  3.03472E-15  3.19922E-16
  1.500E-04  1.71346E-12  5.94722E-08  6.16645E-09  3.64167E-15  3.83906E-16
  1.750E-04  2.33225E-12  5.94722E-08  6.16645E-09  4.24861E-15  4.47890E-16
  2.000E-04  3.04617E-12  5.94722E-08  6.16645E-09  4.85556E-15  5.11875E-16
  2.250E-04  3.85530E-12  5.94722E-08  6.16645E-09  5.46250E-15  5.75859E-16
  2.500E-04  4.75964E-12  5.94722E-08  6.16645E-09  6.06944E-15  6.39844E-16
  2.750E-04  5.75917E-12  5.94722E-08  6.16645E-09  6.67639E-15  7.03828E-16
  3.000E-04  6.85391E-12  5.94722E-08  6.16645E-09  7.28333E-15  7.67812E-16
  3.250E-04  8.04379E-12  5.94722E-08  6.16645E-09  7.89028E-15  8.31797E-16
  3.500E-04  9.32893E-12  5.94722E-08  6.16645E-09  8.49722E-15  8.95781E-16
  3.750E-04  1.07092E-11  5.94722E-08  6.16645E-09  9.10417E-15  9.59765E-16
  4.000E-04  1.21847E-11  5.94722E-08  6.16645E-09  9.71111E-15  1.02375E-15
  4.250E-04  1.37554E-11  5.94722E-08  6.16645E-09  1.03181E-14  1.08773E-15
  4.500E-04  1.54213E-11  5.94722E-08  6.16645E-09  1.09250E-14  1.15172E-15
  4.750E-04  1.71823E-11  5.94722E-08  6.16645E-09  1.15319E-14  1.21570E-15
  5.000E-04  1.90386E-11  5.94722E-08  6.16645E-09  1.21389E-14  1.27969E-15
  5.250E-04  2.09900E-11  5.94722E-08  6.16645E-09  1.27458E-14  1.34367E-15
  5.500E-04  2.30367E-11  5.94722E-08  6.16645E-09  1.33528E-14  1.40766E-15
  5.750E-04  2.51785E-11  5.94722E-08  6.16645E-09  1.39597E-14  1.47164E-15
  6.000E-04  2.74156E-11  5.94722E-08  6.16645E-09  1.45667E-14  1.53562E-15
  6.250E-04  2.97478E-11  5.94722E-08  6.16645E-09  1.51736E-14  1.59961E-15
  6.500E-04  3.21752E-11  5.94722E-08  6.16645E-09  1.57806E-14  1.66359E-15
  6.750E-04  3.46979E-11  5.94722E-08  6.16645E-09  1.63875E-14  1.72758E-15
  7.000E-04  3.73157E-11  5.94722E-08  6.16645E-09  1.69944E-14  1.79156E-15
  7.250E-04  4.00286E-11  5.94722E-08  6.16645E-09  1.76014E-14  1.85555E-15
  7.500E-04  4.28368E-11  5.94722E-08  6.16645E-09  1.82083E-14  1.91953E-15
  7.750E-04  4.57402E-11  5.94722E-08  6.16645E-09  1.88153E-14  1.98351E-15
  8.000E-04  4.87388E-11  5.94722E-08  6.16645E-09  1.94222E-14  2.04750E-15
  8.250E-04  5.18325E-11  5.94722E-08  6.16645E-09  2.00292E-14  2.11148E-15
  8.500E-04  5.50215E-11  5.94722E-08  6.16645E-09  2.06361E-14  2.17547E-15
  8.750E-04  5.83057E-11  5.94722E-08  6.16645E-09  2.12430E-14  2.23945E-15
  9.000E-04  6.16850E-11  5.94722E-08  6.16645E-09  2.18500E-14  2.30344E-15
  9.250E-04  6.51595E-11  5.94722E-08  6.16645E-09  2.24569E-14  2.36742E-15
  9.500E-04  6.87293E-11  5.94722E-08  6.16645E-09  2.30639E-14  2.43141E-15
  9.750E-04  7.23943E-11  5.94722E-08  6.16645E-09  2.36708E-14  2.49539E-15
  1.000E-03  7.61544E-11  5.94722E-08  6.16645E-09  2.42778E-14  2.55937E-15
  1.250E-03  1.18991E-10  5.94722E-08  6.16645E-09  3.03472E-14  3.19922E-15
  1.500E-03  1.71347E-10  5.94722E-08  6.16645E-09  3.64166E-14  3.83906E-15
  1.750E-03  2.33223E-10  5.94722E-08  6.16645E-09  4.24861E-14  4.47890E-15
  2.000E-03  3.04617E-10  5.94721E-08  6.16645E-09  4.85555E-14  5.11875E-15
  2.250E-03  3.85531E-10  5.94721E-08  6.16645E-09  5.46249E-14  5.75859E-15
  2.500E-03  4.75965E-10  5.94721E-08  6.16645E-09  6.06943E-14  6.39843E-15
  2.750E-03  5.75917E-10  5.94721E-08  6.16645E-09  6.67637E-14  7.03828E-15
  3.000E-03  6.85389E-10  5.94720E-08  6.16645E-09  7.28331E-14  7.67812E-15
  3.250E-03  8.04380E-10  5.94720E-08  6.16645E-09  7.89025E-14  8.31796E-15
  3.500E-03  9.32891E-10  5.94719E-08  6.16645E-09  8.49718E-14  8.95780E-15
  3.750E-03  1.07092E-09  5.94719E-08  6.16645E-09  9.10412E-14  9.59764E-15
  4.000E-03  1.21847E-09  5.94719E-08  6.16645E-09  9.71105E-14  1.02375E-14
  4.250E-03  1.37554E-09  5.94718E-08  6.16645E-09  1.03180E-13  1.08773E-14
  4.500E-03  1.54213E-09  5.94718E-08  6.16645E-09  1.09249E-13  1.15172E-14
  4.750E-03  1.71823E-09  5.94717E-08  6.16644E-09  1.15318E-13  1.21570E-14
  5.000E-03  1.90386E-09  5.94717E-08  6.16644E-09  1.21388E-13  1.27969E-14
  5.250E-03  2.09900E-09  5.94716E-08  6.16644E-09  1.27457E-13  1.34367E-14
  5.500E-03  2.30367E-09  5.94715E-08  6.16644E-09  1.33526E-13  1.40765E-14
  5.750E-03  2.51785E-09  5.94715E-08  6.16644E-09  1.39595E-13  1.47164E-14
  6.000E-03  2.74156E-09  5.94714E-08  6.16644E-09  1.45665E-13  1.53562E-14
  6.250E-03  2.97478E-09  5.94713E-08  6.16644E-09  1.51734E-13  1.59961E-14
  6.500E-03  3.21752E-09  5.94713E-08  6.16644E-09  1.57803E-13  1.66359E-14
  6.750E-03  3.46978E-09  5.94712E-08  6.16644E-09  1.63872E-13  1.72757E-14
  7.000E-03  3.73156E-09  5.94711E-08  6.16643E-09  1.69941E-13  1.79156E-14
  7.250E-03  4.00286E-09  5.94710E-08  6.16643E-09  1.76010E-13  1.85554E-14
  7.500E-03  4.28368E-09  5.94709E-08  6.16643E-09  1.82079E-13  1.91952E-14
  7.750E-03  4.57402E-09  5.94708E-08  6.16643E-09  1.88148E-13  1.98351E-14
  8.000E-03  4.87388E-09  5.94708E-08  6.16643E-09  1.94217E-13  2.04749E-14
  8.250E-03  5.18326E-09  5.94707E-08  6.16643E-09  2.00286E-13  2.11147E-14
  8.500E-03  5.50215E-09  5.94706E-08  6.16643E-09  2.06355E-13  2.17546E-14
  8.750E-03  5.83057E-09  5.94705E-08  6.16642E-09  2.12424E-13  2.23944E-14
  9.000E-03  6.16850E-09  5.94704E-08  6.16642E-09  2.18493E-13  2.30343E-14
  9.250E-03  6.51596E-09  5.94703E-08  6.16642E-09  2.24562E-13  2.36741E-14
  9.500E-03  6.87293E-09  5.94702E-08  6.16642E-09  2.30631E-13  2.43139E-14
  9.750E-03  7.23942E-09  5.94700E-08  6.16642E-09  2.36700E-13  2.49538E-14
  1.000E-02  7.61544E-09  5.94699E-08  6.16642E-09  2.42768E-13  2.55936E-14
  1.250E-02  1.18991E-08  5.94686E-08  6.16639E-09  3.03454E-13  3.19919E-14
  1.500E-02  1.71347E-08  5.94671E-08  6.16637E-09  3.64135E-13  3.83901E-14
  1.750E-02  2.33223E-08  5.94652E-08  6.16634E-09  4.24811E-13  4.47882E-14
  2.000E-02  3.04617E-08  5.94630E-08  6.16630E-09  4.85481E-13  5.11862E-14
  2.250E-02  3.85531E-08  5.94606E-08  6.16626E-09  5.46144E-13  5.75842E-14
  2.500E-02  4.75965E-08  5.94579E-08  6.16622E-09  6.06798E-13  6.39819E-14
  2.750E-02  5.75917E-08  5.94549E-08  6.16617E-09  6.67445E-13  7.03796E-14
  3.000E-02  6.85389E-08  5.94516E-08  6.16611E-09  7.28081E-13  7.67771E-14
  3.250E-02  8.04380E-08  5.94480E-08  6.16605E-09  7.88707E-13  8.31744E-14
  3.500E-02  9.32891E-08  5.94441E-08  6.16599E-09  8.49322E-13  8.95715E-14
  3.750E-02  1.07092E-07  5.94400E-08  6.16592E-09  9.09924E-13  9.59684E-14
  4.000E-02  1.21847E-07  5.94355E-08  6.16585E-09  9.70513E-13  1.02365E-13
  4.250E-02  1.37554E-07  5.94308E-08  6.16577E-09  1.03109E-12  1.08762E-13
  4.500E-02  1.54213E-07  5.94258E-08  6.16569E-09  1.09165E-12  1.15158E-13
  4.750E-02  1.71823E-07  5.94205E-08  6.16560E-09  1.15219E-12  1.21554E-13
  5.000E-02  1.90386E-07  5.94149E-08  6.16551E-09  1.21272E-12  1.27949E-13
  5.250E-02  2.09900E-07  5.94090E-08  6.16541E-09  1.27323E-12  1.34345E-13
  5.500E-02  2.30367E-07  5.94029E-08  6.16531E-09  1.33372E-12  1.40740E-13
  5.750E-02  2.51785E-07  5.93964E-08  6.16521E-09  1.39420E-12  1.47135E-13
  6.000E-02  2.74156E-07  5.93897E-08  6.16509E-09  1.45465E-12  1.53529E-13
  6.250E-02  2.97478E-07  5.93827E-08  6.16498E-09  1.51508E-12  1.59923E-13
  6.500E-02  3.21752E-07  5.93754E-08  6.16486E-09  1.57549E-12  1.66317E-13
  6.750E-02  3.46978E-07  5.93678E-08  6.16473E-09  1.63588E-12  1.72710E-13
  7.000E-02  3.73156E-07  5.93600E-08  6.16460E-09  1.69624E-12  1.79103E-13
  7.250E-02  4.00286E-07  5.93518E-08  6.16447E-09  1.75658E-12  1.85496E-13
  7.500E-02  4.28368E-07  5.93434E-08  6.16433E-09  1.81690E-12  1.91888E-13
  7.750E-02  4.57402E-07  5.93347E-08  6.16419E-09  1.87719E-12  1.98280E-13
  8.000E-02  4.87388E-07  5.93257E-08  6.16404E-09  1.93745E-12  2.04671E-13
  8.250E-02  5.18325E-07  5.93164E-08  6.16388E-09  1.99768E-12  2.11062E-13
  8.500E-02  5.50215E-07  5.93068E-08  6.16373E-09  2.05789E-12  2.17452E-13
  8.750E-02  5.83057E-07  5.92970E-08  6.16356E-09  2.11806E-12  2.23842E-13
  9.000E-02  6.16850E-07  5.92869E-08  6.16340E-09  2.17821E-12  2.30232E-13
  9.250E-02  6.51596E-07  5.92765E-08  6.16322E-09  2.23832E-12  2.36620E-13
  9.500E-02  6.87293E-07  5.92658E-08  6.16305E-09  2.29840E-12  2.43009E-13
  9.750E-02  7.23942E-07  5.92548E-08  6.16287E-09  2.35845E-12  2.49396E-13
  1.000E-01  7.61543E-07  5.92435E-08  6.16268E-09  2.41847E-12  2.55784E-13
  1.250E-01  1.18991E-06  5.91156E-08  6.16056E-09  3.01657E-12  3.19621E-13
  1.500E-01  1.71347E-06  5.89599E-08  6.15797E-09  3.61038E-12  3.83387E-13
  1.750E-01  2.33223E-06  5.87769E-08  6.15492E-09  4.19906E-12  4.47067E-13
  2.000E-01  3.04617E-06  5.85669E-08  6.15140E-09  4.78184E-12  5.10647E-13
  2.250E-01  3.85531E-06  5.83306E-08  6.14742E-09  5.35792E-12  5.74113E-13
  2.500E-01  4.75964E-06  5.80686E-08  6.14297E-09  5.92657E-12  6.37450E-13
  2.750E-01  5.75916E-06  5.77814E-08  6.13807E-09  6.48707E-12  7.00646E-13
  3.000E-01  6.85388E-06  5.74699E-08  6.13272E-09  7.03875E-12  7.63686E-13
  3.250E-01  8.04378E-06  5.71347E-08  6.12691E-09  7.58096E-12  8.26557E-13
  3.500E-01  9.32888E-06  5.67766E-08  6.12066E-09  8.11308E-12  8.89245E-13
  3.750E-01  1.07092E-05  5.63965E-08  6.11396E-09  8.63455E-12  9.51739E-13
  4.000E-01  1.21846E-05  5.59953E-08  6.10682E-09  9.14484E-12  1.01402E-12
  4.250E-01  1.37553E-05  5.55739E-08  6.09924E-09  9.64347E-12  1.07609E-12
  4.500E-01  1.54212E-05  5.51332E-08  6.09123E-09  1.01300E-11  1.13792E-12
  4.750E-01  1.71822E-05  5.46741E-08  6.08280E-09  1.06040E-11  1.19950E-12
  5.000E-01  1.90385E-05  5.41977E-08  6.07394E-09  1.10651E-11  1.26083E-12
  5.250E-01  2.09899E-05  5.37050E-08  6.06467E-09  1.15130E-11  1.32188E-12
  5.500E-01  2.30365E-05  5.31969E-08  6.05498E-09  1.19475E-11  1.38266E-12
  5.750E-01  2.51783E-05  5.26745E-08  6.04489E-09  1.23682E-11  1.44314E-12
  6.000E-01  2.74153E-05  5.21388E-08  6.03439E-09  1.27751E-11  1.50332E-12
  6.250E-01  2.97475E-05  5.15907E-08  6.02351E-09  1.31679E-11  1.56318E-12
  6.500E-01  3.21749E-05  5.10313E-08  6.01223E-09  1.35466E-11  1.62272E-12
  6.750E-01  3.46974E-05  5.04617E-08  6.00057E-09  1.39110E-11  1.68192E-12
  7.000E-01  3.73152E-05  4.98826E-08  5.98854E-09  1.42612E-11  1.74078E-12
  7.250E-01  4.00281E-05  4.92952E-08  5.97613E-09  1.45971E-11  1.79929E-12
  7.500E-01  4.28362E-05  4.87004E-08  5.96337E-09  1.49188E-11  1.85743E-12
  7.750E-01  4.57395E-05  4.80991E-08  5.95024E-09  1.52264E-11  1.91519E-12
  8.000E-01  4.87380E-05  4.74922E-08  5.93677E-09  1.55198E-11  1.97258E-12
  8.250E-01  5.18317E-05  4.68806E-08  5.92296E-09  1.57994E-11  2.02957E-12
  8.500E-01  5.50205E-05  4.62651E-08  5.90881E-09  1.60651E-11  2.08617E-12
  8.750E-01  5.83045E-05  4.56466E-08  5.89434E-09  1.63172E-11  2.14237E-12
  9.000E-01  6.16838E-05  4.50258E-08  5.87954E-09  1.65559E-11  2.19815E-12
  9.250E-01  6.51582E-05  4.44035E-08  5.86444E-09  1.67814E-11  2.25351E-12
  9.500E-01  6.87277E-05  4.37804E-08  5.84903E-09  1.69939E-11  2.30844E-12
  9.750E-01  7.23925E-05  4.31573E-08  5.83332E-09  1.71938E-11  2.36295E-12
  1.000E+00  7.61524E-05  4.25348E-08  5.81732E-09  1.73811E-11  2.41701E-12
  1.100E+00  9.21439E-05  4.00628E-08  5.75059E-09  1.80119E-11  2.62878E-12
  1.200E+00  1.09658E-04  3.76451E-08  5.67985E-09  1.84679E-11  2.83314E-12
  1.300E+00  1.28695E-04  3.53088E-08  5.60561E-09  1.87700E-11  3.02987E-12
  1.400E+00  1.49255E-04  3.30737E-08  5.52836E-09  1.89395E-11  3.21882E-12
  1.500E+00  1.71338E-04  3.09531E-08  5.44860E-09  1.89968E-11  3.39994E-12
  1.600E+00  1.94942E-04  2.89550E-08  5.36680E-09  1.89611E-11  3.57321E-12
  1.700E+00  2.20070E-04  2.70829E-08  5.28340E-09  1.88498E-11  3.73869E-12
  1.800E+00  2.46720E-04  2.53370E-08  5.19882E-09  1.86785E-11  3.89651E-12
  1.900E+00  2.74892E-04  2.37150E-08  5.11347E-09  1.84607E-11  4.04681E-12
  2.000E+00  3.04586E-04  2.22125E-08  5.02771E-09  1.82080E-11  4.18981E-12
  2.100E+00  3.35803E-04  2.08239E-08  4.94187E-09  1.79303E-11  4.32573E-12
  2.200E+00  3.68542E-04  1.95429E-08  4.85625E-09  1.76358E-11  4.45484E-12
  2.300E+00  4.02802E-04  1.83626E-08  4.77111E-09  1.73312E-11  4.57740E-12
  2.400E+00  4.38585E-04  1.72761E-08  4.68671E-09  1.70220E-11  4.69372E-12
  2.500E+00  4.75889E-04  1.62763E-08  4.60323E-09  1.67124E-11  4.80409E-12
  2.600E+00  5.14715E-04  1.53564E-08  4.52086E-09  1.64060E-11  4.90881E-12
  2.700E+00  5.55063E-04  1.45100E-08  4.43975E-09  1.61052E-11  5.00817E-12
  2.800E+00  5.96931E-04  1.37307E-08  4.36002E-09  1.58121E-11  5.10248E-12
  2.900E+00  6.40321E-04  1.30130E-08  4.28178E-09  1.55279E-11  5.19202E-12
  3.000E+00  6.85233E-04  1.23512E-08  4.20510E-09  1.52536E-11  5.27707E-12
  3.100E+00  7.31665E-04  1.17405E-08  4.13004E-09  1.49897E-11  5.35789E-12
  3.200E+00  7.79618E-04  1.11762E-08  4.05664E-09  1.47366E-11  5.43475E-12
  3.300E+00  8.29092E-04  1.06541E-08  3.98495E-09  1.44941E-11  5.50787E-12
  3.400E+00  8.80086E-04  1.01705E-08  3.91495E-09  1.42621E-11  5.57749E-12
  3.500E+00  9.32601E-04  9.72169E-09  3.84667E-09  1.40404E-11  5.64382E-12
  3.600E+00  9.86636E-04  9.30464E-09  3.78010E-09  1.38286E-11  5.70705E-12
  3.700E+00  1.04219E-03  8.91643E-09  3.71520E-09  1.36261E-11  5.76737E-12
  3.800E+00  1.09927E-03  8.55445E-09  3.65198E-09  1.34326E-11  5.82495E-12
  3.900E+00  1.15786E-03  8.21635E-09  3.59038E-09  1.32474E-11  5.87995E-12
  4.000E+00  1.21797E-03  7.89999E-09  3.53039E-09  1.30700E-11  5.93250E-12
  4.100E+00  1.27961E-03  7.60345E-09  3.47196E-09  1.28998E-11  5.98275E-12
  4.200E+00  1.34276E-03  7.32501E-09  3.41505E-09  1.27364E-11  6.03080E-12
  4.300E+00  1.40743E-03  7.06310E-09  3.35962E-09  1.25791E-11  6.07679E-12
  4.400E+00  1.47362E-03  6.81631E-09  3.30562E-09  1.24275E-11  6.12079E-12
  4.500E+00  1.54133E-03  6.58337E-09  3.25301E-09  1.22812E-11  6.16291E-12
  4.600E+00  1.61056E-03  6.36314E-09  3.20174E-09  1.21396E-11  6.20323E-12
  4.700E+00  1.68131E-03  6.15458E-09  3.15178E-09  1.20023E-11  6.24182E-12
  4.800E+00  1.75357E-03  5.95676E-09  3.10306E-09  1.18690E-11  6.27876E-12
  4.900E+00  1.82735E-03  5.76884E-09  3.05555E-09  1.17393E-11  6.31411E-12
  5.000E+00  1.90265E-03  5.59006E-09  3.00920E-09  1.16127E-11  6.34793E-12
  5.100E+00  1.97947E-03  5.41972E-09  2.96397E-09  1.14892E-11  6.38026E-12
  5.200E+00  2.05780E-03  5.25722E-09  2.91983E-09  1.13682E-11  6.41117E-12
  5.300E+00  2.13765E-03  5.10199E-09  2.87672E-09  1.12497E-11  6.44069E-12
  5.400E+00  2.21902E-03  4.95351E-09  2.83461E-09  1.11333E-11  6.46887E-12
  5.500E+00  2.30190E-03  4.81133E-09  2.79346E-09  1.10188E-11  6.49574E-12
  5.600E+00  2.38630E-03  4.67502E-09  2.75324E-09  1.09061E-11  6.52134E-12
  5.700E+00  2.47222E-03  4.54420E-09  2.71391E-09  1.07950E-11  6.54571E-12
  5.800E+00  2.55965E-03  4.41852E-09  2.67544E-09  1.06853E-11  6.56887E-12
  5.900E+00  2.64859E-03  4.29767E-09  2.63780E-09  1.05769E-11  6.59086E-12
  6.000E+00  2.73905E-03  4.18135E-09  2.60096E-09  1.04697E-11  6.61169E-12
  6.100E+00  2.83103E-03  4.06931E-09  2.56488E-09  1.03636E-11  6.63142E-12
  6.200E+00  2.92452E-03  3.96129E-09  2.52955E-09  1.02585E-11  6.65004E-12
  6.300E+00  3.01952E-03  3.85708E-09  2.49494E-09  1.01543E-11  6.66760E-12
  6.400E+00  3.11604E-03  3.75647E-09  2.46102E-09  1.00510E-11  6.68411E-12
  6.500E+00  3.21407E-03  3.65927E-09  2.42777E-09  9.94840E-12  6.69960E-12
  6.600E+00  3.31362E-03  3.56531E-09  2.39516E-09  9.84658E-12  6.71409E-12
  6.700E+00  3.41468E-03  3.47444E-09  2.36318E-09  9.74546E-12  6.72761E-12
  6.800E+00  3.51725E-03  3.38649E-09  2.33181E-09  9.64502E-12  6.74017E-12
  6.900E+00  3.62133E-03  3.30134E-09  2.30103E-09  9.54521E-12  6.75179E-12
  7.000E+00  3.72692E-03  3.21885E-09  2.27081E-09  9.44603E-12  6.76250E-12
  7.100E+00  3.83403E-03  3.13891E-09  2.24115E-09  9.34745E-12  6.77232E-12
  7.200E+00  3.94265E-03  3.06141E-09  2.21202E-09  9.24947E-12  6.78127E-12
  7.300E+00  4.05278E-03  2.98624E-09  2.18342E-09  9.15207E-12  6.78936E-12
  7.400E+00  4.16442E-03  2.91331E-09  2.15532E-09  9.05525E-12  6.79662E-12
  7.500E+00  4.27757E-03  2.84253E-09  2.12771E-09  8.95901E-12  6.80307E-12
  7.600E+00  4.39223E-03  2.77381E-09  2.10059E-09  8.86335E-12  6.80873E-12
  7.700E+00  4.50840E-03  2.70707E-09  2.07393E-09  8.76828E-12  6.81361E-12
  7.800E+00  4.62608E-03  2.64225E-09  2.04773E-09  8.67378E-12  6.81774E-12
  7.900E+00  4.74527E-03  2.57925E-09  2.02196E-09  8.57989E-12  6.82113E-12
  8.000E+00  4.86597E-03  2.51803E-09  1.99664E-09  8.48659E-12  6.82380E-12
  8.100E+00  4.98817E-03  2.45852E-09  1.97173E-09  8.39390E-12  6.82578E-12
  8.200E+00  5.11188E-03  2.40065E-09  1.94724E-09  8.30183E-12  6.82707E-12
  8.300E+00  5.23711E-03  2.34438E-09  1.92315E-09  8.21039E-12  6.82770E-12
  8.400E+00  5.36383E-03  2.28964E-09  1.89945E-09  8.11959E-12  6.82769E-12
  8.500E+00  5.49207E-03  2.23638E-09  1.87613E-09  8.02943E-12  6.82705E-12
  8.600E+00  5.62181E-03  2.18456E-09  1.85320E-09  7.93993E-12  6.82580E-12
  8.700E+00  5.75306E-03  2.13413E-09  1.83063E-09  7.85109E-12  6.82396E-12
  8.800E+00  5.88581E-03  2.08504E-09  1.80842E-09  7.76294E-12  6.82155E-12
  8.900E+00  6.02007E-03  2.03725E-09  1.78656E-09  7.67547E-12  6.81857E-12
  9.000E+00  6.15583E-03  1.99072E-09  1.76505E-09  7.58870E-12  6.81506E-12
  9.100E+00  6.29310E-03  1.94542E-09  1.74387E-09  7.50264E-12  6.81102E-12
  9.200E+00  6.43187E-03  1.90130E-09  1.72303E-09  7.41729E-12  6.80647E-12
  9.300E+00  6.57214E-03  1.85832E-09  1.70251E-09  7.33266E-12  6.80142E-12
  9.400E+00  6.71392E-03  1.81646E-09  1.68231E-09  7.24877E-12  6.79590E-12
  9.500E+00  6.85720E-03  1.77568E-09  1.66243E-09  7.16561E-12  6.78991E-12
  9.600E+00  7.00198E-03  1.73594E-09  1.64284E-09  7.08321E-12  6.78347E-12
  9.700E+00  7.14827E-03  1.69722E-09  1.62356E-09  7.00155E-12  6.77660E-12
  9.800E+00  7.29605E-03  1.65949E-09  1.60458E-09  6.92065E-12  6.76932E-12
  9.900E+00  7.44534E-03  1.62271E-09  1.58588E-09  6.84051E-12  6.76162E-12
  1.000E+01  7.59612E-03  1.58687E-09  1.56747E-09  6.76115E-12  6.75354E-12
  1.025E+01  7.97965E-03  1.50115E-09  1.52264E-09  6.56611E-12  6.73170E-12
  1.050E+01  8.37255E-03  1.42068E-09  1.47948E-09  6.37594E-12  6.70770E-12
  1.075E+01  8.77480E-03  1.34510E-09  1.43792E-09  6.19067E-12  6.68173E-12
  1.100E+01  9.18641E-03  1.27408E-09  1.39787E-09  6.01030E-12  6.65397E-12
  1.125E+01  9.60736E-03  1.20732E-09  1.35928E-09  5.83483E-12  6.62459E-12
  1.150E+01  1.00376E-02  1.14451E-09  1.32209E-09  5.66421E-12  6.59375E-12
  1.175E+01  1.04773E-02  1.08541E-09  1.28623E-09  5.49842E-12  6.56160E-12
  1.200E+01  1.09262E-02  1.02977E-09  1.25166E-09  5.33739E-12  6.52827E-12
  1.225E+01  1.13844E-02  9.77355E-10  1.21832E-09  5.18105E-12  6.49391E-12
  1.250E+01  1.18520E-02  9.27962E-10  1.18615E-09  5.02933E-12  6.45862E-12
  1.275E+01  1.23288E-02  8.81394E-10  1.15511E-09  4.88214E-12  6.42252E-12
  1.300E+01  1.28150E-02  8.37471E-10  1.12516E-09  4.73939E-12  6.38571E-12
  1.325E+01  1.33104E-02  7.96021E-10  1.09625E-09  4.60097E-12  6.34829E-12
  1.350E+01  1.38150E-02  7.56890E-10  1.06833E-09  4.46679E-12  6.31035E-12
  1.375E+01  1.43290E-02  7.19929E-10  1.04137E-09  4.33672E-12  6.27197E-12
  1.400E+01  1.48521E-02  6.85003E-10  1.01533E-09  4.21068E-12  6.23323E-12
  1.425E+01  1.53845E-02  6.51984E-10  9.90176E-10  4.08853E-12  6.19419E-12
  1.450E+01  1.59262E-02  6.20755E-10  9.65865E-10  3.97018E-12  6.15492E-12
  1.475E+01  1.64770E-02  5.91206E-10  9.42368E-10  3.85550E-12  6.11548E-12
  1.500E+01  1.70371E-02  5.63232E-10  9.19652E-10  3.74439E-12  6.07592E-12
